Created as New Dataset,Sample 037 By Analyst Date Thursday, March 27 2025
cm-1,A
4000.00,-0.0970
3999.00,-0.0970
3998.00,-0.0970
3997.00,-0.0970
3996.00,-0.0970
3995.00,-0.0970
3994.00,-0.0970
3993.00,-0.0970
3992.00,-0.0969
3991.00,-0.0969
3990.00,-0.0969
3989.00,-0.0969
3988.00,-0.0969
3987.00,-0.0968
3986.00,-0.0968
3985.00,-0.0968
3984.00,-0.0968
3983.00,-0.0968
3982.00,-0.0968
3981.00,-0.0967
3980.00,-0.0967
3979.00,-0.0967
3978.00,-0.0967
3977.00,-0.0966
3976.00,-0.0966
3975.00,-0.0966
3974.00,-0.0966
3973.00,-0.0966
3972.00,-0.0966
3971.00,-0.0965
3970.00,-0.0965
3969.00,-0.0965
3968.00,-0.0965
3967.00,-0.0965
3966.00,-0.0965
3965.00,-0.0965
3964.00,-0.0965
3963.00,-0.0965
3962.00,-0.0965
3961.00,-0.0965
3960.00,-0.0965
3959.00,-0.0965
3958.00,-0.0965
3957.00,-0.0965
3956.00,-0.0965
3955.00,-0.0965
3954.00,-0.0965
3953.00,-0.0965
3952.00,-0.0965
3951.00,-0.0965
3950.00,-0.0965
3949.00,-0.0965
3948.00,-0.0965
3947.00,-0.0965
3946.00,-0.0965
3945.00,-0.0965
3944.00,-0.0965
3943.00,-0.0965
3942.00,-0.0965
3941.00,-0.0965
3940.00,-0.0965
3939.00,-0.0965
3938.00,-0.0965
3937.00,-0.0965
3936.00,-0.0965
3935.00,-0.0964
3934.00,-0.0964
3933.00,-0.0964
3932.00,-0.0964
3931.00,-0.0964
3930.00,-0.0963
3929.00,-0.0963
3928.00,-0.0963
3927.00,-0.0963
3926.00,-0.0963
3925.00,-0.0962
3924.00,-0.0962
3923.00,-0.0962
3922.00,-0.0962
3921.00,-0.0962
3920.00,-0.0962
3919.00,-0.0961
3918.00,-0.0961
3917.00,-0.0961
3916.00,-0.0961
3915.00,-0.0960
3914.00,-0.0960
3913.00,-0.0960
3912.00,-0.0960
3911.00,-0.0960
3910.00,-0.0961
3909.00,-0.0961
3908.00,-0.0961
3907.00,-0.0961
3906.00,-0.0961
3905.00,-0.0961
3904.00,-0.0960
3903.00,-0.0960
3902.00,-0.0960
3901.00,-0.0960
3900.00,-0.0959
3899.00,-0.0959
3898.00,-0.0959
3897.00,-0.0960
3896.00,-0.0960
3895.00,-0.0961
3894.00,-0.0961
3893.00,-0.0961
3892.00,-0.0961
3891.00,-0.0960
3890.00,-0.0961
3889.00,-0.0961
3888.00,-0.0961
3887.00,-0.0961
3886.00,-0.0960
3885.00,-0.0960
3884.00,-0.0960
3883.00,-0.0961
3882.00,-0.0960
3881.00,-0.0960
3880.00,-0.0959
3879.00,-0.0960
3878.00,-0.0960
3877.00,-0.0960
3876.00,-0.0960
3875.00,-0.0960
3874.00,-0.0960
3873.00,-0.0960
3872.00,-0.0960
3871.00,-0.0960
3870.00,-0.0959
3869.00,-0.0959
3868.00,-0.0959
3867.00,-0.0959
3866.00,-0.0959
3865.00,-0.0958
3864.00,-0.0958
3863.00,-0.0958
3862.00,-0.0959
3861.00,-0.0959
3860.00,-0.0959
3859.00,-0.0958
3858.00,-0.0958
3857.00,-0.0958
3856.00,-0.0959
3855.00,-0.0959
3854.00,-0.0957
3853.00,-0.0956
3852.00,-0.0957
3851.00,-0.0959
3850.00,-0.0959
3849.00,-0.0958
3848.00,-0.0958
3847.00,-0.0958
3846.00,-0.0958
3845.00,-0.0959
3844.00,-0.0959
3843.00,-0.0959
3842.00,-0.0959
3841.00,-0.0960
3840.00,-0.0959
3839.00,-0.0959
3838.00,-0.0958
3837.00,-0.0958
3836.00,-0.0958
3835.00,-0.0958
3834.00,-0.0958
3833.00,-0.0957
3832.00,-0.0957
3831.00,-0.0957
3830.00,-0.0957
3829.00,-0.0957
3828.00,-0.0957
3827.00,-0.0956
3826.00,-0.0956
3825.00,-0.0956
3824.00,-0.0957
3823.00,-0.0957
3822.00,-0.0956
3821.00,-0.0955
3820.00,-0.0955
3819.00,-0.0955
3818.00,-0.0954
3817.00,-0.0954
3816.00,-0.0953
3815.00,-0.0953
3814.00,-0.0953
3813.00,-0.0953
3812.00,-0.0953
3811.00,-0.0953
3810.00,-0.0953
3809.00,-0.0953
3808.00,-0.0953
3807.00,-0.0953
3806.00,-0.0953
3805.00,-0.0954
3804.00,-0.0954
3803.00,-0.0953
3802.00,-0.0952
3801.00,-0.0952
3800.00,-0.0952
3799.00,-0.0953
3798.00,-0.0953
3797.00,-0.0952
3796.00,-0.0952
3795.00,-0.0952
3794.00,-0.0953
3793.00,-0.0953
3792.00,-0.0953
3791.00,-0.0953
3790.00,-0.0953
3789.00,-0.0953
3788.00,-0.0953
3787.00,-0.0953
3786.00,-0.0954
3785.00,-0.0953
3784.00,-0.0954
3783.00,-0.0954
3782.00,-0.0954
3781.00,-0.0953
3780.00,-0.0953
3779.00,-0.0953
3778.00,-0.0953
3777.00,-0.0953
3776.00,-0.0953
3775.00,-0.0953
3774.00,-0.0953
3773.00,-0.0953
3772.00,-0.0953
3771.00,-0.0953
3770.00,-0.0953
3769.00,-0.0953
3768.00,-0.0953
3767.00,-0.0953
3766.00,-0.0953
3765.00,-0.0952
3764.00,-0.0952
3763.00,-0.0953
3762.00,-0.0953
3761.00,-0.0953
3760.00,-0.0953
3759.00,-0.0952
3758.00,-0.0952
3757.00,-0.0952
3756.00,-0.0952
3755.00,-0.0952
3754.00,-0.0952
3753.00,-0.0952
3752.00,-0.0952
3751.00,-0.0951
3750.00,-0.0950
3749.00,-0.0950
3748.00,-0.0950
3747.00,-0.0949
3746.00,-0.0948
3745.00,-0.0947
3744.00,-0.0946
3743.00,-0.0947
3742.00,-0.0949
3741.00,-0.0949
3740.00,-0.0948
3739.00,-0.0948
3738.00,-0.0948
3737.00,-0.0948
3736.00,-0.0948
3735.00,-0.0948
3734.00,-0.0947
3733.00,-0.0946
3732.00,-0.0946
3731.00,-0.0946
3730.00,-0.0946
3729.00,-0.0946
3728.00,-0.0946
3727.00,-0.0946
3726.00,-0.0946
3725.00,-0.0946
3724.00,-0.0946
3723.00,-0.0945
3722.00,-0.0945
3721.00,-0.0945
3720.00,-0.0945
3719.00,-0.0945
3718.00,-0.0945
3717.00,-0.0945
3716.00,-0.0946
3715.00,-0.0946
3714.00,-0.0946
3713.00,-0.0946
3712.00,-0.0946
3711.00,-0.0946
3710.00,-0.0946
3709.00,-0.0947
3708.00,-0.0947
3707.00,-0.0947
3706.00,-0.0947
3705.00,-0.0948
3704.00,-0.0948
3703.00,-0.0949
3702.00,-0.0949
3701.00,-0.0950
3700.00,-0.0951
3699.00,-0.0951
3698.00,-0.0952
3697.00,-0.0953
3696.00,-0.0954
3695.00,-0.0955
3694.00,-0.0956
3693.00,-0.0957
3692.00,-0.0958
3691.00,-0.0959
3690.00,-0.0959
3689.00,-0.0959
3688.00,-0.0959
3687.00,-0.0961
3686.00,-0.0961
3685.00,-0.0962
3684.00,-0.0962
3683.00,-0.0963
3682.00,-0.0963
3681.00,-0.0964
3680.00,-0.0965
3679.00,-0.0966
3678.00,-0.0966
3677.00,-0.0966
3676.00,-0.0965
3675.00,-0.0964
3674.00,-0.0964
3673.00,-0.0965
3672.00,-0.0964
3671.00,-0.0963
3670.00,-0.0963
3669.00,-0.0963
3668.00,-0.0963
3667.00,-0.0963
3666.00,-0.0963
3665.00,-0.0962
3664.00,-0.0962
3663.00,-0.0962
3662.00,-0.0962
3661.00,-0.0962
3660.00,-0.0962
3659.00,-0.0962
3658.00,-0.0961
3657.00,-0.0961
3656.00,-0.0960
3655.00,-0.0960
3654.00,-0.0960
3653.00,-0.0960
3652.00,-0.0960
3651.00,-0.0960
3650.00,-0.0959
3649.00,-0.0958
3648.00,-0.0958
3647.00,-0.0957
3646.00,-0.0957
3645.00,-0.0957
3644.00,-0.0956
3643.00,-0.0956
3642.00,-0.0956
3641.00,-0.0956
3640.00,-0.0957
3639.00,-0.0957
3638.00,-0.0957
3637.00,-0.0957
3636.00,-0.0957
3635.00,-0.0957
3634.00,-0.0957
3633.00,-0.0957
3632.00,-0.0957
3631.00,-0.0957
3630.00,-0.0957
3629.00,-0.0956
3628.00,-0.0955
3627.00,-0.0956
3626.00,-0.0957
3625.00,-0.0957
3624.00,-0.0956
3623.00,-0.0957
3622.00,-0.0957
3621.00,-0.0957
3620.00,-0.0957
3619.00,-0.0957
3618.00,-0.0957
3617.00,-0.0958
3616.00,-0.0958
3615.00,-0.0958
3614.00,-0.0958
3613.00,-0.0957
3612.00,-0.0957
3611.00,-0.0957
3610.00,-0.0957
3609.00,-0.0957
3608.00,-0.0957
3607.00,-0.0956
3606.00,-0.0956
3605.00,-0.0956
3604.00,-0.0956
3603.00,-0.0957
3602.00,-0.0957
3601.00,-0.0957
3600.00,-0.0957
3599.00,-0.0957
3598.00,-0.0958
3597.00,-0.0958
3596.00,-0.0958
3595.00,-0.0958
3594.00,-0.0958
3593.00,-0.0958
3592.00,-0.0958
3591.00,-0.0958
3590.00,-0.0958
3589.00,-0.0958
3588.00,-0.0958
3587.00,-0.0958
3586.00,-0.0958
3585.00,-0.0959
3584.00,-0.0959
3583.00,-0.0959
3582.00,-0.0959
3581.00,-0.0960
3580.00,-0.0960
3579.00,-0.0961
3578.00,-0.0961
3577.00,-0.0962
3576.00,-0.0962
3575.00,-0.0962
3574.00,-0.0962
3573.00,-0.0962
3572.00,-0.0962
3571.00,-0.0963
3570.00,-0.0963
3569.00,-0.0963
3568.00,-0.0963
3567.00,-0.0963
3566.00,-0.0963
3565.00,-0.0963
3564.00,-0.0963
3563.00,-0.0963
3562.00,-0.0963
3561.00,-0.0963
3560.00,-0.0963
3559.00,-0.0964
3558.00,-0.0964
3557.00,-0.0964
3556.00,-0.0964
3555.00,-0.0964
3554.00,-0.0964
3553.00,-0.0964
3552.00,-0.0964
3551.00,-0.0964
3550.00,-0.0964
3549.00,-0.0963
3548.00,-0.0963
3547.00,-0.0963
3546.00,-0.0963
3545.00,-0.0963
3544.00,-0.0963
3543.00,-0.0962
3542.00,-0.0962
3541.00,-0.0962
3540.00,-0.0963
3539.00,-0.0963
3538.00,-0.0963
3537.00,-0.0963
3536.00,-0.0963
3535.00,-0.0963
3534.00,-0.0963
3533.00,-0.0963
3532.00,-0.0963
3531.00,-0.0964
3530.00,-0.0964
3529.00,-0.0964
3528.00,-0.0964
3527.00,-0.0964
3526.00,-0.0964
3525.00,-0.0964
3524.00,-0.0964
3523.00,-0.0964
3522.00,-0.0964
3521.00,-0.0964
3520.00,-0.0964
3519.00,-0.0964
3518.00,-0.0963
3517.00,-0.0963
3516.00,-0.0963
3515.00,-0.0963
3514.00,-0.0963
3513.00,-0.0963
3512.00,-0.0963
3511.00,-0.0963
3510.00,-0.0963
3509.00,-0.0963
3508.00,-0.0962
3507.00,-0.0962
3506.00,-0.0962
3505.00,-0.0962
3504.00,-0.0961
3503.00,-0.0961
3502.00,-0.0961
3501.00,-0.0961
3500.00,-0.0961
3499.00,-0.0961
3498.00,-0.0961
3497.00,-0.0961
3496.00,-0.0961
3495.00,-0.0961
3494.00,-0.0961
3493.00,-0.0961
3492.00,-0.0961
3491.00,-0.0961
3490.00,-0.0961
3489.00,-0.0961
3488.00,-0.0961
3487.00,-0.0962
3486.00,-0.0962
3485.00,-0.0962
3484.00,-0.0962
3483.00,-0.0962
3482.00,-0.0963
3481.00,-0.0963
3480.00,-0.0963
3479.00,-0.0963
3478.00,-0.0963
3477.00,-0.0964
3476.00,-0.0964
3475.00,-0.0964
3474.00,-0.0964
3473.00,-0.0965
3472.00,-0.0965
3471.00,-0.0965
3470.00,-0.0965
3469.00,-0.0965
3468.00,-0.0966
3467.00,-0.0966
3466.00,-0.0966
3465.00,-0.0966
3464.00,-0.0967
3463.00,-0.0967
3462.00,-0.0967
3461.00,-0.0967
3460.00,-0.0967
3459.00,-0.0967
3458.00,-0.0967
3457.00,-0.0967
3456.00,-0.0967
3455.00,-0.0967
3454.00,-0.0967
3453.00,-0.0967
3452.00,-0.0968
3451.00,-0.0968
3450.00,-0.0968
3449.00,-0.0968
3448.00,-0.0968
3447.00,-0.0968
3446.00,-0.0968
3445.00,-0.0968
3444.00,-0.0968
3443.00,-0.0968
3442.00,-0.0968
3441.00,-0.0969
3440.00,-0.0969
3439.00,-0.0969
3438.00,-0.0969
3437.00,-0.0969
3436.00,-0.0969
3435.00,-0.0969
3434.00,-0.0969
3433.00,-0.0970
3432.00,-0.0970
3431.00,-0.0970
3430.00,-0.0970
3429.00,-0.0970
3428.00,-0.0970
3427.00,-0.0970
3426.00,-0.0970
3425.00,-0.0971
3424.00,-0.0971
3423.00,-0.0971
3422.00,-0.0970
3421.00,-0.0970
3420.00,-0.0970
3419.00,-0.0970
3418.00,-0.0970
3417.00,-0.0970
3416.00,-0.0969
3415.00,-0.0969
3414.00,-0.0969
3413.00,-0.0968
3412.00,-0.0968
3411.00,-0.0968
3410.00,-0.0967
3409.00,-0.0967
3408.00,-0.0966
3407.00,-0.0966
3406.00,-0.0965
3405.00,-0.0965
3404.00,-0.0964
3403.00,-0.0964
3402.00,-0.0963
3401.00,-0.0963
3400.00,-0.0962
3399.00,-0.0962
3398.00,-0.0961
3397.00,-0.0961
3396.00,-0.0961
3395.00,-0.0960
3394.00,-0.0960
3393.00,-0.0959
3392.00,-0.0959
3391.00,-0.0959
3390.00,-0.0959
3389.00,-0.0958
3388.00,-0.0958
3387.00,-0.0958
3386.00,-0.0958
3385.00,-0.0958
3384.00,-0.0957
3383.00,-0.0957
3382.00,-0.0957
3381.00,-0.0957
3380.00,-0.0957
3379.00,-0.0957
3378.00,-0.0957
3377.00,-0.0957
3376.00,-0.0957
3375.00,-0.0957
3374.00,-0.0957
3373.00,-0.0956
3372.00,-0.0956
3371.00,-0.0956
3370.00,-0.0956
3369.00,-0.0956
3368.00,-0.0956
3367.00,-0.0956
3366.00,-0.0956
3365.00,-0.0956
3364.00,-0.0956
3363.00,-0.0956
3362.00,-0.0956
3361.00,-0.0956
3360.00,-0.0956
3359.00,-0.0956
3358.00,-0.0956
3357.00,-0.0956
3356.00,-0.0956
3355.00,-0.0956
3354.00,-0.0955
3353.00,-0.0955
3352.00,-0.0955
3351.00,-0.0955
3350.00,-0.0955
3349.00,-0.0955
3348.00,-0.0955
3347.00,-0.0955
3346.00,-0.0955
3345.00,-0.0955
3344.00,-0.0955
3343.00,-0.0955
3342.00,-0.0955
3341.00,-0.0955
3340.00,-0.0955
3339.00,-0.0955
3338.00,-0.0955
3337.00,-0.0955
3336.00,-0.0955
3335.00,-0.0956
3334.00,-0.0956
3333.00,-0.0956
3332.00,-0.0956
3331.00,-0.0956
3330.00,-0.0956
3329.00,-0.0957
3328.00,-0.0957
3327.00,-0.0957
3326.00,-0.0957
3325.00,-0.0958
3324.00,-0.0958
3323.00,-0.0958
3322.00,-0.0958
3321.00,-0.0959
3320.00,-0.0959
3319.00,-0.0959
3318.00,-0.0960
3317.00,-0.0960
3316.00,-0.0960
3315.00,-0.0961
3314.00,-0.0961
3313.00,-0.0962
3312.00,-0.0962
3311.00,-0.0962
3310.00,-0.0963
3309.00,-0.0963
3308.00,-0.0964
3307.00,-0.0965
3306.00,-0.0965
3305.00,-0.0966
3304.00,-0.0966
3303.00,-0.0966
3302.00,-0.0967
3301.00,-0.0966
3300.00,-0.0966
3299.00,-0.0966
3298.00,-0.0965
3297.00,-0.0964
3296.00,-0.0964
3295.00,-0.0963
3294.00,-0.0962
3293.00,-0.0961
3292.00,-0.0961
3291.00,-0.0960
3290.00,-0.0960
3289.00,-0.0959
3288.00,-0.0958
3287.00,-0.0958
3286.00,-0.0957
3285.00,-0.0957
3284.00,-0.0956
3283.00,-0.0956
3282.00,-0.0955
3281.00,-0.0955
3280.00,-0.0955
3279.00,-0.0954
3278.00,-0.0954
3277.00,-0.0954
3276.00,-0.0953
3275.00,-0.0953
3274.00,-0.0953
3273.00,-0.0953
3272.00,-0.0953
3271.00,-0.0952
3270.00,-0.0952
3269.00,-0.0952
3268.00,-0.0952
3267.00,-0.0952
3266.00,-0.0952
3265.00,-0.0952
3264.00,-0.0952
3263.00,-0.0952
3262.00,-0.0952
3261.00,-0.0952
3260.00,-0.0953
3259.00,-0.0953
3258.00,-0.0953
3257.00,-0.0953
3256.00,-0.0953
3255.00,-0.0953
3254.00,-0.0953
3253.00,-0.0953
3252.00,-0.0953
3251.00,-0.0953
3250.00,-0.0953
3249.00,-0.0953
3248.00,-0.0953
3247.00,-0.0953
3246.00,-0.0953
3245.00,-0.0953
3244.00,-0.0953
3243.00,-0.0953
3242.00,-0.0953
3241.00,-0.0953
3240.00,-0.0953
3239.00,-0.0953
3238.00,-0.0953
3237.00,-0.0953
3236.00,-0.0953
3235.00,-0.0953
3234.00,-0.0953
3233.00,-0.0953
3232.00,-0.0953
3231.00,-0.0953
3230.00,-0.0953
3229.00,-0.0953
3228.00,-0.0954
3227.00,-0.0954
3226.00,-0.0954
3225.00,-0.0954
3224.00,-0.0954
3223.00,-0.0954
3222.00,-0.0955
3221.00,-0.0955
3220.00,-0.0955
3219.00,-0.0955
3218.00,-0.0956
3217.00,-0.0956
3216.00,-0.0956
3215.00,-0.0957
3214.00,-0.0957
3213.00,-0.0957
3212.00,-0.0957
3211.00,-0.0958
3210.00,-0.0958
3209.00,-0.0958
3208.00,-0.0958
3207.00,-0.0959
3206.00,-0.0959
3205.00,-0.0959
3204.00,-0.0959
3203.00,-0.0960
3202.00,-0.0960
3201.00,-0.0960
3200.00,-0.0960
3199.00,-0.0960
3198.00,-0.0960
3197.00,-0.0960
3196.00,-0.0960
3195.00,-0.0960
3194.00,-0.0960
3193.00,-0.0959
3192.00,-0.0959
3191.00,-0.0959
3190.00,-0.0959
3189.00,-0.0959
3188.00,-0.0959
3187.00,-0.0959
3186.00,-0.0959
3185.00,-0.0959
3184.00,-0.0959
3183.00,-0.0959
3182.00,-0.0959
3181.00,-0.0959
3180.00,-0.0959
3179.00,-0.0959
3178.00,-0.0959
3177.00,-0.0958
3176.00,-0.0958
3175.00,-0.0958
3174.00,-0.0958
3173.00,-0.0958
3172.00,-0.0958
3171.00,-0.0958
3170.00,-0.0958
3169.00,-0.0958
3168.00,-0.0958
3167.00,-0.0958
3166.00,-0.0958
3165.00,-0.0958
3164.00,-0.0959
3163.00,-0.0959
3162.00,-0.0959
3161.00,-0.0959
3160.00,-0.0959
3159.00,-0.0960
3158.00,-0.0960
3157.00,-0.0960
3156.00,-0.0960
3155.00,-0.0960
3154.00,-0.0960
3153.00,-0.0960
3152.00,-0.0960
3151.00,-0.0960
3150.00,-0.0960
3149.00,-0.0960
3148.00,-0.0960
3147.00,-0.0960
3146.00,-0.0960
3145.00,-0.0960
3144.00,-0.0960
3143.00,-0.0960
3142.00,-0.0960
3141.00,-0.0960
3140.00,-0.0960
3139.00,-0.0960
3138.00,-0.0960
3137.00,-0.0960
3136.00,-0.0960
3135.00,-0.0960
3134.00,-0.0959
3133.00,-0.0959
3132.00,-0.0959
3131.00,-0.0959
3130.00,-0.0959
3129.00,-0.0959
3128.00,-0.0959
3127.00,-0.0960
3126.00,-0.0960
3125.00,-0.0960
3124.00,-0.0960
3123.00,-0.0960
3122.00,-0.0960
3121.00,-0.0960
3120.00,-0.0960
3119.00,-0.0960
3118.00,-0.0961
3117.00,-0.0961
3116.00,-0.0961
3115.00,-0.0962
3114.00,-0.0962
3113.00,-0.0963
3112.00,-0.0963
3111.00,-0.0963
3110.00,-0.0964
3109.00,-0.0964
3108.00,-0.0964
3107.00,-0.0965
3106.00,-0.0965
3105.00,-0.0966
3104.00,-0.0966
3103.00,-0.0966
3102.00,-0.0966
3101.00,-0.0966
3100.00,-0.0966
3099.00,-0.0967
3098.00,-0.0967
3097.00,-0.0967
3096.00,-0.0967
3095.00,-0.0967
3094.00,-0.0967
3093.00,-0.0967
3092.00,-0.0967
3091.00,-0.0967
3090.00,-0.0967
3089.00,-0.0967
3088.00,-0.0967
3087.00,-0.0967
3086.00,-0.0967
3085.00,-0.0967
3084.00,-0.0967
3083.00,-0.0968
3082.00,-0.0968
3081.00,-0.0968
3080.00,-0.0968
3079.00,-0.0968
3078.00,-0.0968
3077.00,-0.0968
3076.00,-0.0968
3075.00,-0.0968
3074.00,-0.0968
3073.00,-0.0968
3072.00,-0.0968
3071.00,-0.0968
3070.00,-0.0968
3069.00,-0.0969
3068.00,-0.0969
3067.00,-0.0969
3066.00,-0.0969
3065.00,-0.0969
3064.00,-0.0969
3063.00,-0.0969
3062.00,-0.0969
3061.00,-0.0969
3060.00,-0.0969
3059.00,-0.0969
3058.00,-0.0969
3057.00,-0.0969
3056.00,-0.0969
3055.00,-0.0969
3054.00,-0.0970
3053.00,-0.0970
3052.00,-0.0970
3051.00,-0.0970
3050.00,-0.0970
3049.00,-0.0970
3048.00,-0.0970
3047.00,-0.0970
3046.00,-0.0970
3045.00,-0.0970
3044.00,-0.0970
3043.00,-0.0970
3042.00,-0.0970
3041.00,-0.0970
3040.00,-0.0970
3039.00,-0.0970
3038.00,-0.0970
3037.00,-0.0970
3036.00,-0.0970
3035.00,-0.0970
3034.00,-0.0970
3033.00,-0.0970
3032.00,-0.0970
3031.00,-0.0970
3030.00,-0.0970
3029.00,-0.0969
3028.00,-0.0969
3027.00,-0.0969
3026.00,-0.0969
3025.00,-0.0969
3024.00,-0.0969
3023.00,-0.0969
3022.00,-0.0969
3021.00,-0.0969
3020.00,-0.0969
3019.00,-0.0969
3018.00,-0.0969
3017.00,-0.0968
3016.00,-0.0968
3015.00,-0.0968
3014.00,-0.0968
3013.00,-0.0968
3012.00,-0.0968
3011.00,-0.0969
3010.00,-0.0969
3009.00,-0.0969
3008.00,-0.0969
3007.00,-0.0969
3006.00,-0.0969
3005.00,-0.0969
3004.00,-0.0969
3003.00,-0.0969
3002.00,-0.0969
3001.00,-0.0969
3000.00,-0.0969
2999.00,-0.0969
2998.00,-0.0969
2997.00,-0.0969
2996.00,-0.0969
2995.00,-0.0969
2994.00,-0.0969
2993.00,-0.0969
2992.00,-0.0969
2991.00,-0.0969
2990.00,-0.0969
2989.00,-0.0969
2988.00,-0.0969
2987.00,-0.0969
2986.00,-0.0969
2985.00,-0.0969
2984.00,-0.0969
2983.00,-0.0969
2982.00,-0.0969
2981.00,-0.0969
2980.00,-0.0969
2979.00,-0.0969
2978.00,-0.0969
2977.00,-0.0969
2976.00,-0.0968
2975.00,-0.0968
2974.00,-0.0968
2973.00,-0.0968
2972.00,-0.0968
2971.00,-0.0968
2970.00,-0.0968
2969.00,-0.0968
2968.00,-0.0968
2967.00,-0.0968
2966.00,-0.0968
2965.00,-0.0968
2964.00,-0.0968
2963.00,-0.0968
2962.00,-0.0968
2961.00,-0.0968
2960.00,-0.0968
2959.00,-0.0968
2958.00,-0.0968
2957.00,-0.0968
2956.00,-0.0968
2955.00,-0.0968
2954.00,-0.0968
2953.00,-0.0968
2952.00,-0.0969
2951.00,-0.0969
2950.00,-0.0969
2949.00,-0.0969
2948.00,-0.0969
2947.00,-0.0969
2946.00,-0.0969
2945.00,-0.0969
2944.00,-0.0969
2943.00,-0.0970
2942.00,-0.0970
2941.00,-0.0970
2940.00,-0.0970
2939.00,-0.0970
2938.00,-0.0970
2937.00,-0.0970
2936.00,-0.0970
2935.00,-0.0970
2934.00,-0.0970
2933.00,-0.0970
2932.00,-0.0970
2931.00,-0.0970
2930.00,-0.0970
2929.00,-0.0970
2928.00,-0.0970
2927.00,-0.0970
2926.00,-0.0970
2925.00,-0.0970
2924.00,-0.0970
2923.00,-0.0970
2922.00,-0.0970
2921.00,-0.0969
2920.00,-0.0969
2919.00,-0.0969
2918.00,-0.0969
2917.00,-0.0969
2916.00,-0.0968
2915.00,-0.0968
2914.00,-0.0968
2913.00,-0.0968
2912.00,-0.0967
2911.00,-0.0967
2910.00,-0.0967
2909.00,-0.0967
2908.00,-0.0967
2907.00,-0.0967
2906.00,-0.0967
2905.00,-0.0967
2904.00,-0.0967
2903.00,-0.0967
2902.00,-0.0967
2901.00,-0.0967
2900.00,-0.0967
2899.00,-0.0967
2898.00,-0.0967
2897.00,-0.0968
2896.00,-0.0968
2895.00,-0.0968
2894.00,-0.0968
2893.00,-0.0968
2892.00,-0.0968
2891.00,-0.0968
2890.00,-0.0969
2889.00,-0.0969
2888.00,-0.0969
2887.00,-0.0969
2886.00,-0.0969
2885.00,-0.0969
2884.00,-0.0969
2883.00,-0.0969
2882.00,-0.0969
2881.00,-0.0969
2880.00,-0.0969
2879.00,-0.0969
2878.00,-0.0968
2877.00,-0.0968
2876.00,-0.0968
2875.00,-0.0968
2874.00,-0.0968
2873.00,-0.0968
2872.00,-0.0968
2871.00,-0.0968
2870.00,-0.0968
2869.00,-0.0967
2868.00,-0.0967
2867.00,-0.0967
2866.00,-0.0967
2865.00,-0.0967
2864.00,-0.0967
2863.00,-0.0967
2862.00,-0.0967
2861.00,-0.0967
2860.00,-0.0967
2859.00,-0.0967
2858.00,-0.0967
2857.00,-0.0967
2856.00,-0.0967
2855.00,-0.0968
2854.00,-0.0968
2853.00,-0.0968
2852.00,-0.0968
2851.00,-0.0968
2850.00,-0.0968
2849.00,-0.0968
2848.00,-0.0968
2847.00,-0.0968
2846.00,-0.0968
2845.00,-0.0968
2844.00,-0.0968
2843.00,-0.0968
2842.00,-0.0968
2841.00,-0.0968
2840.00,-0.0968
2839.00,-0.0968
2838.00,-0.0968
2837.00,-0.0968
2836.00,-0.0968
2835.00,-0.0969
2834.00,-0.0969
2833.00,-0.0969
2832.00,-0.0969
2831.00,-0.0969
2830.00,-0.0968
2829.00,-0.0968
2828.00,-0.0968
2827.00,-0.0968
2826.00,-0.0968
2825.00,-0.0968
2824.00,-0.0967
2823.00,-0.0967
2822.00,-0.0967
2821.00,-0.0967
2820.00,-0.0967
2819.00,-0.0966
2818.00,-0.0966
2817.00,-0.0966
2816.00,-0.0966
2815.00,-0.0966
2814.00,-0.0965
2813.00,-0.0965
2812.00,-0.0965
2811.00,-0.0965
2810.00,-0.0965
2809.00,-0.0965
2808.00,-0.0965
2807.00,-0.0965
2806.00,-0.0965
2805.00,-0.0965
2804.00,-0.0965
2803.00,-0.0965
2802.00,-0.0965
2801.00,-0.0965
2800.00,-0.0965
2799.00,-0.0965
2798.00,-0.0965
2797.00,-0.0966
2796.00,-0.0966
2795.00,-0.0966
2794.00,-0.0966
2793.00,-0.0966
2792.00,-0.0966
2791.00,-0.0966
2790.00,-0.0966
2789.00,-0.0966
2788.00,-0.0966
2787.00,-0.0966
2786.00,-0.0966
2785.00,-0.0966
2784.00,-0.0966
2783.00,-0.0966
2782.00,-0.0966
2781.00,-0.0966
2780.00,-0.0966
2779.00,-0.0966
2778.00,-0.0966
2777.00,-0.0966
2776.00,-0.0966
2775.00,-0.0966
2774.00,-0.0965
2773.00,-0.0965
2772.00,-0.0965
2771.00,-0.0965
2770.00,-0.0965
2769.00,-0.0965
2768.00,-0.0965
2767.00,-0.0964
2766.00,-0.0964
2765.00,-0.0964
2764.00,-0.0964
2763.00,-0.0964
2762.00,-0.0964
2761.00,-0.0964
2760.00,-0.0963
2759.00,-0.0963
2758.00,-0.0963
2757.00,-0.0963
2756.00,-0.0963
2755.00,-0.0963
2754.00,-0.0963
2753.00,-0.0963
2752.00,-0.0963
2751.00,-0.0963
2750.00,-0.0963
2749.00,-0.0963
2748.00,-0.0963
2747.00,-0.0964
2746.00,-0.0964
2745.00,-0.0964
2744.00,-0.0964
2743.00,-0.0964
2742.00,-0.0964
2741.00,-0.0964
2740.00,-0.0964
2739.00,-0.0965
2738.00,-0.0965
2737.00,-0.0965
2736.00,-0.0965
2735.00,-0.0965
2734.00,-0.0965
2733.00,-0.0965
2732.00,-0.0965
2731.00,-0.0965
2730.00,-0.0965
2729.00,-0.0965
2728.00,-0.0965
2727.00,-0.0964
2726.00,-0.0964
2725.00,-0.0964
2724.00,-0.0964
2723.00,-0.0963
2722.00,-0.0963
2721.00,-0.0963
2720.00,-0.0963
2719.00,-0.0962
2718.00,-0.0962
2717.00,-0.0962
2716.00,-0.0962
2715.00,-0.0961
2714.00,-0.0961
2713.00,-0.0961
2712.00,-0.0961
2711.00,-0.0961
2710.00,-0.0960
2709.00,-0.0960
2708.00,-0.0960
2707.00,-0.0960
2706.00,-0.0959
2705.00,-0.0959
2704.00,-0.0959
2703.00,-0.0959
2702.00,-0.0959
2701.00,-0.0959
2700.00,-0.0959
2699.00,-0.0959
2698.00,-0.0959
2697.00,-0.0959
2696.00,-0.0959
2695.00,-0.0959
2694.00,-0.0959
2693.00,-0.0959
2692.00,-0.0959
2691.00,-0.0959
2690.00,-0.0959
2689.00,-0.0959
2688.00,-0.0960
2687.00,-0.0960
2686.00,-0.0960
2685.00,-0.0960
2684.00,-0.0960
2683.00,-0.0960
2682.00,-0.0960
2681.00,-0.0961
2680.00,-0.0961
2679.00,-0.0961
2678.00,-0.0961
2677.00,-0.0961
2676.00,-0.0962
2675.00,-0.0962
2674.00,-0.0962
2673.00,-0.0962
2672.00,-0.0962
2671.00,-0.0961
2670.00,-0.0961
2669.00,-0.0961
2668.00,-0.0961
2667.00,-0.0961
2666.00,-0.0961
2665.00,-0.0960
2664.00,-0.0960
2663.00,-0.0960
2662.00,-0.0959
2661.00,-0.0959
2660.00,-0.0958
2659.00,-0.0958
2658.00,-0.0958
2657.00,-0.0957
2656.00,-0.0957
2655.00,-0.0957
2654.00,-0.0957
2653.00,-0.0956
2652.00,-0.0956
2651.00,-0.0956
2650.00,-0.0956
2649.00,-0.0956
2648.00,-0.0955
2647.00,-0.0955
2646.00,-0.0955
2645.00,-0.0955
2644.00,-0.0955
2643.00,-0.0955
2642.00,-0.0955
2641.00,-0.0955
2640.00,-0.0955
2639.00,-0.0955
2638.00,-0.0955
2637.00,-0.0955
2636.00,-0.0955
2635.00,-0.0955
2634.00,-0.0955
2633.00,-0.0956
2632.00,-0.0956
2631.00,-0.0956
2630.00,-0.0956
2629.00,-0.0956
2628.00,-0.0956
2627.00,-0.0956
2626.00,-0.0957
2625.00,-0.0957
2624.00,-0.0957
2623.00,-0.0957
2622.00,-0.0957
2621.00,-0.0957
2620.00,-0.0958
2619.00,-0.0958
2618.00,-0.0958
2617.00,-0.0958
2616.00,-0.0958
2615.00,-0.0958
2614.00,-0.0958
2613.00,-0.0958
2612.00,-0.0958
2611.00,-0.0958
2610.00,-0.0957
2609.00,-0.0957
2608.00,-0.0957
2607.00,-0.0957
2606.00,-0.0957
2605.00,-0.0957
2604.00,-0.0957
2603.00,-0.0956
2602.00,-0.0956
2601.00,-0.0956
2600.00,-0.0956
2599.00,-0.0956
2598.00,-0.0956
2597.00,-0.0956
2596.00,-0.0956
2595.00,-0.0956
2594.00,-0.0956
2593.00,-0.0956
2592.00,-0.0956
2591.00,-0.0956
2590.00,-0.0956
2589.00,-0.0956
2588.00,-0.0956
2587.00,-0.0956
2586.00,-0.0956
2585.00,-0.0956
2584.00,-0.0956
2583.00,-0.0956
2582.00,-0.0956
2581.00,-0.0957
2580.00,-0.0957
2579.00,-0.0957
2578.00,-0.0957
2577.00,-0.0957
2576.00,-0.0957
2575.00,-0.0957
2574.00,-0.0957
2573.00,-0.0957
2572.00,-0.0957
2571.00,-0.0957
2570.00,-0.0957
2569.00,-0.0957
2568.00,-0.0957
2567.00,-0.0957
2566.00,-0.0957
2565.00,-0.0956
2564.00,-0.0956
2563.00,-0.0956
2562.00,-0.0956
2561.00,-0.0956
2560.00,-0.0955
2559.00,-0.0955
2558.00,-0.0955
2557.00,-0.0955
2556.00,-0.0955
2555.00,-0.0954
2554.00,-0.0954
2553.00,-0.0954
2552.00,-0.0953
2551.00,-0.0953
2550.00,-0.0953
2549.00,-0.0952
2548.00,-0.0952
2547.00,-0.0952
2546.00,-0.0951
2545.00,-0.0951
2544.00,-0.0951
2543.00,-0.0951
2542.00,-0.0950
2541.00,-0.0950
2540.00,-0.0950
2539.00,-0.0950
2538.00,-0.0950
2537.00,-0.0950
2536.00,-0.0950
2535.00,-0.0950
2534.00,-0.0950
2533.00,-0.0951
2532.00,-0.0951
2531.00,-0.0951
2530.00,-0.0951
2529.00,-0.0951
2528.00,-0.0951
2527.00,-0.0951
2526.00,-0.0951
2525.00,-0.0951
2524.00,-0.0951
2523.00,-0.0951
2522.00,-0.0951
2521.00,-0.0951
2520.00,-0.0951
2519.00,-0.0951
2518.00,-0.0951
2517.00,-0.0951
2516.00,-0.0951
2515.00,-0.0950
2514.00,-0.0950
2513.00,-0.0950
2512.00,-0.0950
2511.00,-0.0949
2510.00,-0.0949
2509.00,-0.0949
2508.00,-0.0948
2507.00,-0.0948
2506.00,-0.0948
2505.00,-0.0947
2504.00,-0.0947
2503.00,-0.0947
2502.00,-0.0946
2501.00,-0.0946
2500.00,-0.0946
2499.00,-0.0945
2498.00,-0.0945
2497.00,-0.0945
2496.00,-0.0944
2495.00,-0.0944
2494.00,-0.0944
2493.00,-0.0944
2492.00,-0.0943
2491.00,-0.0943
2490.00,-0.0943
2489.00,-0.0943
2488.00,-0.0943
2487.00,-0.0943
2486.00,-0.0943
2485.00,-0.0943
2484.00,-0.0943
2483.00,-0.0943
2482.00,-0.0943
2481.00,-0.0943
2480.00,-0.0943
2479.00,-0.0943
2478.00,-0.0943
2477.00,-0.0943
2476.00,-0.0943
2475.00,-0.0943
2474.00,-0.0943
2473.00,-0.0943
2472.00,-0.0943
2471.00,-0.0943
2470.00,-0.0943
2469.00,-0.0943
2468.00,-0.0943
2467.00,-0.0943
2466.00,-0.0943
2465.00,-0.0943
2464.00,-0.0943
2463.00,-0.0943
2462.00,-0.0943
2461.00,-0.0943
2460.00,-0.0943
2459.00,-0.0942
2458.00,-0.0942
2457.00,-0.0942
2456.00,-0.0942
2455.00,-0.0942
2454.00,-0.0942
2453.00,-0.0942
2452.00,-0.0942
2451.00,-0.0942
2450.00,-0.0942
2449.00,-0.0942
2448.00,-0.0942
2447.00,-0.0942
2446.00,-0.0942
2445.00,-0.0942
2444.00,-0.0942
2443.00,-0.0942
2442.00,-0.0942
2441.00,-0.0942
2440.00,-0.0942
2439.00,-0.0943
2438.00,-0.0943
2437.00,-0.0943
2436.00,-0.0943
2435.00,-0.0943
2434.00,-0.0944
2433.00,-0.0944
2432.00,-0.0944
2431.00,-0.0945
2430.00,-0.0945
2429.00,-0.0945
2428.00,-0.0946
2427.00,-0.0946
2426.00,-0.0947
2425.00,-0.0947
2424.00,-0.0947
2423.00,-0.0948
2422.00,-0.0948
2421.00,-0.0949
2420.00,-0.0949
2419.00,-0.0949
2418.00,-0.0950
2417.00,-0.0950
2416.00,-0.0950
2415.00,-0.0950
2414.00,-0.0950
2413.00,-0.0951
2412.00,-0.0951
2411.00,-0.0951
2410.00,-0.0951
2409.00,-0.0951
2408.00,-0.0950
2407.00,-0.0950
2406.00,-0.0950
2405.00,-0.0950
2404.00,-0.0950
2403.00,-0.0949
2402.00,-0.0949
2401.00,-0.0949
2400.00,-0.0948
2399.00,-0.0948
2398.00,-0.0948
2397.00,-0.0947
2396.00,-0.0947
2395.00,-0.0947
2394.00,-0.0946
2393.00,-0.0946
2392.00,-0.0946
2391.00,-0.0946
2390.00,-0.0946
2389.00,-0.0946
2388.00,-0.0946
2387.00,-0.0946
2386.00,-0.0946
2385.00,-0.0946
2384.00,-0.0946
2383.00,-0.0946
2382.00,-0.0946
2381.00,-0.0946
2380.00,-0.0946
2379.00,-0.0946
2378.00,-0.0946
2377.00,-0.0946
2376.00,-0.0946
2375.00,-0.0946
2374.00,-0.0946
2373.00,-0.0946
2372.00,-0.0945
2371.00,-0.0945
2370.00,-0.0945
2369.00,-0.0945
2368.00,-0.0945
2367.00,-0.0944
2366.00,-0.0944
2365.00,-0.0945
2364.00,-0.0945
2363.00,-0.0945
2362.00,-0.0945
2361.00,-0.0945
2360.00,-0.0945
2359.00,-0.0945
2358.00,-0.0945
2357.00,-0.0945
2356.00,-0.0945
2355.00,-0.0945
2354.00,-0.0945
2353.00,-0.0945
2352.00,-0.0945
2351.00,-0.0945
2350.00,-0.0945
2349.00,-0.0945
2348.00,-0.0945
2347.00,-0.0945
2346.00,-0.0945
2345.00,-0.0945
2344.00,-0.0945
2343.00,-0.0945
2342.00,-0.0945
2341.00,-0.0944
2340.00,-0.0944
2339.00,-0.0944
2338.00,-0.0944
2337.00,-0.0944
2336.00,-0.0944
2335.00,-0.0944
2334.00,-0.0944
2333.00,-0.0944
2332.00,-0.0945
2331.00,-0.0945
2330.00,-0.0945
2329.00,-0.0945
2328.00,-0.0945
2327.00,-0.0944
2326.00,-0.0944
2325.00,-0.0944
2324.00,-0.0944
2323.00,-0.0943
2322.00,-0.0943
2321.00,-0.0943
2320.00,-0.0942
2319.00,-0.0942
2318.00,-0.0942
2317.00,-0.0941
2316.00,-0.0941
2315.00,-0.0941
2314.00,-0.0941
2313.00,-0.0941
2312.00,-0.0941
2311.00,-0.0941
2310.00,-0.0941
2309.00,-0.0941
2308.00,-0.0941
2307.00,-0.0941
2306.00,-0.0941
2305.00,-0.0941
2304.00,-0.0941
2303.00,-0.0941
2302.00,-0.0941
2301.00,-0.0941
2300.00,-0.0941
2299.00,-0.0941
2298.00,-0.0941
2297.00,-0.0941
2296.00,-0.0940
2295.00,-0.0940
2294.00,-0.0940
2293.00,-0.0940
2292.00,-0.0940
2291.00,-0.0940
2290.00,-0.0939
2289.00,-0.0939
2288.00,-0.0939
2287.00,-0.0939
2286.00,-0.0939
2285.00,-0.0939
2284.00,-0.0938
2283.00,-0.0938
2282.00,-0.0938
2281.00,-0.0938
2280.00,-0.0938
2279.00,-0.0938
2278.00,-0.0938
2277.00,-0.0937
2276.00,-0.0937
2275.00,-0.0937
2274.00,-0.0937
2273.00,-0.0937
2272.00,-0.0938
2271.00,-0.0938
2270.00,-0.0938
2269.00,-0.0938
2268.00,-0.0938
2267.00,-0.0938
2266.00,-0.0939
2265.00,-0.0939
2264.00,-0.0939
2263.00,-0.0939
2262.00,-0.0939
2261.00,-0.0939
2260.00,-0.0939
2259.00,-0.0940
2258.00,-0.0940
2257.00,-0.0940
2256.00,-0.0940
2255.00,-0.0940
2254.00,-0.0940
2253.00,-0.0940
2252.00,-0.0940
2251.00,-0.0940
2250.00,-0.0940
2249.00,-0.0940
2248.00,-0.0940
2247.00,-0.0940
2246.00,-0.0940
2245.00,-0.0940
2244.00,-0.0939
2243.00,-0.0939
2242.00,-0.0939
2241.00,-0.0938
2240.00,-0.0938
2239.00,-0.0938
2238.00,-0.0937
2237.00,-0.0937
2236.00,-0.0937
2235.00,-0.0936
2234.00,-0.0936
2233.00,-0.0935
2232.00,-0.0935
2231.00,-0.0935
2230.00,-0.0934
2229.00,-0.0934
2228.00,-0.0934
2227.00,-0.0933
2226.00,-0.0933
2225.00,-0.0933
2224.00,-0.0933
2223.00,-0.0932
2222.00,-0.0932
2221.00,-0.0932
2220.00,-0.0932
2219.00,-0.0932
2218.00,-0.0932
2217.00,-0.0932
2216.00,-0.0932
2215.00,-0.0932
2214.00,-0.0933
2213.00,-0.0933
2212.00,-0.0933
2211.00,-0.0933
2210.00,-0.0933
2209.00,-0.0933
2208.00,-0.0933
2207.00,-0.0933
2206.00,-0.0933
2205.00,-0.0933
2204.00,-0.0933
2203.00,-0.0933
2202.00,-0.0933
2201.00,-0.0933
2200.00,-0.0932
2199.00,-0.0932
2198.00,-0.0932
2197.00,-0.0932
2196.00,-0.0931
2195.00,-0.0931
2194.00,-0.0931
2193.00,-0.0931
2192.00,-0.0930
2191.00,-0.0930
2190.00,-0.0929
2189.00,-0.0929
2188.00,-0.0929
2187.00,-0.0928
2186.00,-0.0928
2185.00,-0.0928
2184.00,-0.0927
2183.00,-0.0927
2182.00,-0.0927
2181.00,-0.0927
2180.00,-0.0926
2179.00,-0.0926
2178.00,-0.0926
2177.00,-0.0926
2176.00,-0.0926
2175.00,-0.0926
2174.00,-0.0926
2173.00,-0.0926
2172.00,-0.0926
2171.00,-0.0926
2170.00,-0.0927
2169.00,-0.0927
2168.00,-0.0927
2167.00,-0.0927
2166.00,-0.0927
2165.00,-0.0928
2164.00,-0.0928
2163.00,-0.0928
2162.00,-0.0929
2161.00,-0.0929
2160.00,-0.0929
2159.00,-0.0930
2158.00,-0.0930
2157.00,-0.0930
2156.00,-0.0931
2155.00,-0.0931
2154.00,-0.0931
2153.00,-0.0931
2152.00,-0.0931
2151.00,-0.0931
2150.00,-0.0931
2149.00,-0.0931
2148.00,-0.0931
2147.00,-0.0931
2146.00,-0.0931
2145.00,-0.0931
2144.00,-0.0931
2143.00,-0.0931
2142.00,-0.0930
2141.00,-0.0930
2140.00,-0.0930
2139.00,-0.0929
2138.00,-0.0929
2137.00,-0.0929
2136.00,-0.0928
2135.00,-0.0928
2134.00,-0.0928
2133.00,-0.0927
2132.00,-0.0927
2131.00,-0.0927
2130.00,-0.0926
2129.00,-0.0926
2128.00,-0.0926
2127.00,-0.0926
2126.00,-0.0926
2125.00,-0.0926
2124.00,-0.0925
2123.00,-0.0925
2122.00,-0.0925
2121.00,-0.0925
2120.00,-0.0925
2119.00,-0.0925
2118.00,-0.0925
2117.00,-0.0925
2116.00,-0.0925
2115.00,-0.0925
2114.00,-0.0925
2113.00,-0.0925
2112.00,-0.0925
2111.00,-0.0926
2110.00,-0.0926
2109.00,-0.0926
2108.00,-0.0926
2107.00,-0.0926
2106.00,-0.0926
2105.00,-0.0926
2104.00,-0.0926
2103.00,-0.0926
2102.00,-0.0926
2101.00,-0.0927
2100.00,-0.0927
2099.00,-0.0927
2098.00,-0.0927
2097.00,-0.0927
2096.00,-0.0927
2095.00,-0.0927
2094.00,-0.0928
2093.00,-0.0928
2092.00,-0.0928
2091.00,-0.0928
2090.00,-0.0928
2089.00,-0.0928
2088.00,-0.0928
2087.00,-0.0928
2086.00,-0.0928
2085.00,-0.0928
2084.00,-0.0928
2083.00,-0.0928
2082.00,-0.0928
2081.00,-0.0928
2080.00,-0.0928
2079.00,-0.0928
2078.00,-0.0928
2077.00,-0.0927
2076.00,-0.0927
2075.00,-0.0927
2074.00,-0.0927
2073.00,-0.0927
2072.00,-0.0927
2071.00,-0.0926
2070.00,-0.0926
2069.00,-0.0926
2068.00,-0.0926
2067.00,-0.0926
2066.00,-0.0925
2065.00,-0.0925
2064.00,-0.0925
2063.00,-0.0925
2062.00,-0.0925
2061.00,-0.0925
2060.00,-0.0925
2059.00,-0.0925
2058.00,-0.0925
2057.00,-0.0925
2056.00,-0.0925
2055.00,-0.0925
2054.00,-0.0925
2053.00,-0.0925
2052.00,-0.0925
2051.00,-0.0925
2050.00,-0.0926
2049.00,-0.0926
2048.00,-0.0926
2047.00,-0.0926
2046.00,-0.0927
2045.00,-0.0927
2044.00,-0.0927
2043.00,-0.0927
2042.00,-0.0928
2041.00,-0.0928
2040.00,-0.0928
2039.00,-0.0928
2038.00,-0.0929
2037.00,-0.0929
2036.00,-0.0929
2035.00,-0.0929
2034.00,-0.0929
2033.00,-0.0929
2032.00,-0.0929
2031.00,-0.0929
2030.00,-0.0929
2029.00,-0.0929
2028.00,-0.0928
2027.00,-0.0928
2026.00,-0.0928
2025.00,-0.0927
2024.00,-0.0927
2023.00,-0.0927
2022.00,-0.0926
2021.00,-0.0926
2020.00,-0.0926
2019.00,-0.0925
2018.00,-0.0925
2017.00,-0.0925
2016.00,-0.0924
2015.00,-0.0924
2014.00,-0.0924
2013.00,-0.0924
2012.00,-0.0924
2011.00,-0.0924
2010.00,-0.0924
2009.00,-0.0924
2008.00,-0.0924
2007.00,-0.0925
2006.00,-0.0925
2005.00,-0.0925
2004.00,-0.0926
2003.00,-0.0926
2002.00,-0.0927
2001.00,-0.0927
2000.00,-0.0928
1999.00,-0.0928
1998.00,-0.0929
1997.00,-0.0930
1996.00,-0.0930
1995.00,-0.0931
1994.00,-0.0931
1993.00,-0.0932
1992.00,-0.0933
1991.00,-0.0933
1990.00,-0.0934
1989.00,-0.0935
1988.00,-0.0935
1987.00,-0.0936
1986.00,-0.0936
1985.00,-0.0937
1984.00,-0.0937
1983.00,-0.0938
1982.00,-0.0938
1981.00,-0.0938
1980.00,-0.0939
1979.00,-0.0939
1978.00,-0.0939
1977.00,-0.0939
1976.00,-0.0939
1975.00,-0.0939
1974.00,-0.0938
1973.00,-0.0938
1972.00,-0.0937
1971.00,-0.0937
1970.00,-0.0936
1969.00,-0.0936
1968.00,-0.0935
1967.00,-0.0935
1966.00,-0.0935
1965.00,-0.0934
1964.00,-0.0934
1963.00,-0.0934
1962.00,-0.0934
1961.00,-0.0935
1960.00,-0.0935
1959.00,-0.0936
1958.00,-0.0936
1957.00,-0.0937
1956.00,-0.0938
1955.00,-0.0939
1954.00,-0.0940
1953.00,-0.0940
1952.00,-0.0941
1951.00,-0.0942
1950.00,-0.0943
1949.00,-0.0943
1948.00,-0.0944
1947.00,-0.0944
1946.00,-0.0944
1945.00,-0.0944
1944.00,-0.0944
1943.00,-0.0944
1942.00,-0.0944
1941.00,-0.0944
1940.00,-0.0943
1939.00,-0.0943
1938.00,-0.0942
1937.00,-0.0941
1936.00,-0.0940
1935.00,-0.0940
1934.00,-0.0939
1933.00,-0.0938
1932.00,-0.0937
1931.00,-0.0937
1930.00,-0.0936
1929.00,-0.0936
1928.00,-0.0935
1927.00,-0.0935
1926.00,-0.0935
1925.00,-0.0934
1924.00,-0.0934
1923.00,-0.0934
1922.00,-0.0934
1921.00,-0.0934
1920.00,-0.0934
1919.00,-0.0934
1918.00,-0.0934
1917.00,-0.0934
1916.00,-0.0934
1915.00,-0.0933
1914.00,-0.0933
1913.00,-0.0933
1912.00,-0.0932
1911.00,-0.0932
1910.00,-0.0932
1909.00,-0.0932
1908.00,-0.0931
1907.00,-0.0931
1906.00,-0.0931
1905.00,-0.0931
1904.00,-0.0931
1903.00,-0.0931
1902.00,-0.0931
1901.00,-0.0931
1900.00,-0.0931
1899.00,-0.0931
1898.00,-0.0931
1897.00,-0.0932
1896.00,-0.0932
1895.00,-0.0932
1894.00,-0.0932
1893.00,-0.0933
1892.00,-0.0933
1891.00,-0.0933
1890.00,-0.0933
1889.00,-0.0934
1888.00,-0.0935
1887.00,-0.0935
1886.00,-0.0936
1885.00,-0.0936
1884.00,-0.0936
1883.00,-0.0937
1882.00,-0.0937
1881.00,-0.0938
1880.00,-0.0938
1879.00,-0.0938
1878.00,-0.0939
1877.00,-0.0939
1876.00,-0.0939
1875.00,-0.0939
1874.00,-0.0940
1873.00,-0.0940
1872.00,-0.0940
1871.00,-0.0939
1870.00,-0.0939
1869.00,-0.0939
1868.00,-0.0939
1867.00,-0.0939
1866.00,-0.0939
1865.00,-0.0938
1864.00,-0.0938
1863.00,-0.0938
1862.00,-0.0938
1861.00,-0.0937
1860.00,-0.0937
1859.00,-0.0938
1858.00,-0.0938
1857.00,-0.0938
1856.00,-0.0939
1855.00,-0.0939
1854.00,-0.0940
1853.00,-0.0941
1852.00,-0.0941
1851.00,-0.0942
1850.00,-0.0943
1849.00,-0.0943
1848.00,-0.0944
1847.00,-0.0944
1846.00,-0.0945
1845.00,-0.0945
1844.00,-0.0946
1843.00,-0.0946
1842.00,-0.0947
1841.00,-0.0947
1840.00,-0.0947
1839.00,-0.0948
1838.00,-0.0948
1837.00,-0.0948
1836.00,-0.0948
1835.00,-0.0948
1834.00,-0.0948
1833.00,-0.0948
1832.00,-0.0948
1831.00,-0.0948
1830.00,-0.0948
1829.00,-0.0948
1828.00,-0.0948
1827.00,-0.0948
1826.00,-0.0948
1825.00,-0.0949
1824.00,-0.0949
1823.00,-0.0949
1822.00,-0.0949
1821.00,-0.0950
1820.00,-0.0950
1819.00,-0.0950
1818.00,-0.0950
1817.00,-0.0950
1816.00,-0.0951
1815.00,-0.0951
1814.00,-0.0951
1813.00,-0.0951
1812.00,-0.0951
1811.00,-0.0951
1810.00,-0.0951
1809.00,-0.0952
1808.00,-0.0952
1807.00,-0.0952
1806.00,-0.0952
1805.00,-0.0952
1804.00,-0.0952
1803.00,-0.0952
1802.00,-0.0953
1801.00,-0.0953
1800.00,-0.0954
1799.00,-0.0954
1798.00,-0.0954
1797.00,-0.0955
1796.00,-0.0955
1795.00,-0.0955
1794.00,-0.0955
1793.00,-0.0955
1792.00,-0.0956
1791.00,-0.0957
1790.00,-0.0958
1789.00,-0.0958
1788.00,-0.0958
1787.00,-0.0958
1786.00,-0.0959
1785.00,-0.0959
1784.00,-0.0959
1783.00,-0.0959
1782.00,-0.0960
1781.00,-0.0960
1780.00,-0.0960
1779.00,-0.0961
1778.00,-0.0961
1777.00,-0.0961
1776.00,-0.0961
1775.00,-0.0961
1774.00,-0.0961
1773.00,-0.0961
1772.00,-0.0961
1771.00,-0.0960
1770.00,-0.0960
1769.00,-0.0960
1768.00,-0.0960
1767.00,-0.0960
1766.00,-0.0960
1765.00,-0.0960
1764.00,-0.0960
1763.00,-0.0959
1762.00,-0.0959
1761.00,-0.0959
1760.00,-0.0959
1759.00,-0.0958
1758.00,-0.0958
1757.00,-0.0958
1756.00,-0.0958
1755.00,-0.0958
1754.00,-0.0958
1753.00,-0.0958
1752.00,-0.0958
1751.00,-0.0958
1750.00,-0.0958
1749.00,-0.0958
1748.00,-0.0958
1747.00,-0.0958
1746.00,-0.0958
1745.00,-0.0958
1744.00,-0.0958
1743.00,-0.0958
1742.00,-0.0958
1741.00,-0.0958
1740.00,-0.0959
1739.00,-0.0959
1738.00,-0.0959
1737.00,-0.0959
1736.00,-0.0959
1735.00,-0.0959
1734.00,-0.0959
1733.00,-0.0960
1732.00,-0.0960
1731.00,-0.0960
1730.00,-0.0960
1729.00,-0.0960
1728.00,-0.0960
1727.00,-0.0961
1726.00,-0.0961
1725.00,-0.0961
1724.00,-0.0961
1723.00,-0.0961
1722.00,-0.0962
1721.00,-0.0961
1720.00,-0.0961
1719.00,-0.0961
1718.00,-0.0961
1717.00,-0.0961
1716.00,-0.0961
1715.00,-0.0961
1714.00,-0.0961
1713.00,-0.0961
1712.00,-0.0961
1711.00,-0.0961
1710.00,-0.0961
1709.00,-0.0961
1708.00,-0.0960
1707.00,-0.0960
1706.00,-0.0960
1705.00,-0.0960
1704.00,-0.0960
1703.00,-0.0959
1702.00,-0.0959
1701.00,-0.0959
1700.00,-0.0958
1699.00,-0.0959
1698.00,-0.0959
1697.00,-0.0958
1696.00,-0.0958
1695.00,-0.0958
1694.00,-0.0959
1693.00,-0.0959
1692.00,-0.0958
1691.00,-0.0958
1690.00,-0.0958
1689.00,-0.0959
1688.00,-0.0959
1687.00,-0.0958
1686.00,-0.0958
1685.00,-0.0958
1684.00,-0.0958
1683.00,-0.0959
1682.00,-0.0959
1681.00,-0.0959
1680.00,-0.0959
1679.00,-0.0959
1678.00,-0.0959
1677.00,-0.0959
1676.00,-0.0959
1675.00,-0.0959
1674.00,-0.0960
1673.00,-0.0960
1672.00,-0.0960
1671.00,-0.0960
1670.00,-0.0960
1669.00,-0.0960
1668.00,-0.0960
1667.00,-0.0960
1666.00,-0.0960
1665.00,-0.0959
1664.00,-0.0959
1663.00,-0.0959
1662.00,-0.0959
1661.00,-0.0959
1660.00,-0.0959
1659.00,-0.0959
1658.00,-0.0958
1657.00,-0.0958
1656.00,-0.0957
1655.00,-0.0957
1654.00,-0.0957
1653.00,-0.0956
1652.00,-0.0956
1651.00,-0.0957
1650.00,-0.0957
1649.00,-0.0957
1648.00,-0.0957
1647.00,-0.0956
1646.00,-0.0956
1645.00,-0.0957
1644.00,-0.0957
1643.00,-0.0957
1642.00,-0.0957
1641.00,-0.0958
1640.00,-0.0958
1639.00,-0.0958
1638.00,-0.0958
1637.00,-0.0958
1636.00,-0.0958
1635.00,-0.0958
1634.00,-0.0958
1633.00,-0.0958
1632.00,-0.0958
1631.00,-0.0958
1630.00,-0.0958
1629.00,-0.0958
1628.00,-0.0959
1627.00,-0.0959
1626.00,-0.0959
1625.00,-0.0959
1624.00,-0.0959
1623.00,-0.0959
1622.00,-0.0959
1621.00,-0.0959
1620.00,-0.0959
1619.00,-0.0959
1618.00,-0.0959
1617.00,-0.0959
1616.00,-0.0959
1615.00,-0.0960
1614.00,-0.0960
1613.00,-0.0960
1612.00,-0.0960
1611.00,-0.0960
1610.00,-0.0960
1609.00,-0.0960
1608.00,-0.0960
1607.00,-0.0960
1606.00,-0.0960
1605.00,-0.0960
1604.00,-0.0960
1603.00,-0.0960
1602.00,-0.0960
1601.00,-0.0959
1600.00,-0.0959
1599.00,-0.0959
1598.00,-0.0959
1597.00,-0.0959
1596.00,-0.0958
1595.00,-0.0958
1594.00,-0.0958
1593.00,-0.0957
1592.00,-0.0957
1591.00,-0.0957
1590.00,-0.0957
1589.00,-0.0957
1588.00,-0.0957
1587.00,-0.0957
1586.00,-0.0957
1585.00,-0.0958
1584.00,-0.0958
1583.00,-0.0958
1582.00,-0.0958
1581.00,-0.0958
1580.00,-0.0958
1579.00,-0.0958
1578.00,-0.0958
1577.00,-0.0958
1576.00,-0.0959
1575.00,-0.0959
1574.00,-0.0960
1573.00,-0.0960
1572.00,-0.0960
1571.00,-0.0960
1570.00,-0.0960
1569.00,-0.0960
1568.00,-0.0960
1567.00,-0.0961
1566.00,-0.0961
1565.00,-0.0961
1564.00,-0.0961
1563.00,-0.0960
1562.00,-0.0960
1561.00,-0.0960
1560.00,-0.0961
1559.00,-0.0960
1558.00,-0.0959
1557.00,-0.0959
1556.00,-0.0959
1555.00,-0.0959
1554.00,-0.0959
1553.00,-0.0959
1552.00,-0.0959
1551.00,-0.0959
1550.00,-0.0959
1549.00,-0.0959
1548.00,-0.0959
1547.00,-0.0959
1546.00,-0.0959
1545.00,-0.0959
1544.00,-0.0959
1543.00,-0.0959
1542.00,-0.0959
1541.00,-0.0959
1540.00,-0.0959
1539.00,-0.0959
1538.00,-0.0959
1537.00,-0.0958
1536.00,-0.0958
1535.00,-0.0957
1534.00,-0.0957
1533.00,-0.0957
1532.00,-0.0957
1531.00,-0.0957
1530.00,-0.0957
1529.00,-0.0957
1528.00,-0.0957
1527.00,-0.0957
1526.00,-0.0957
1525.00,-0.0957
1524.00,-0.0957
1523.00,-0.0957
1522.00,-0.0957
1521.00,-0.0957
1520.00,-0.0957
1519.00,-0.0958
1518.00,-0.0958
1517.00,-0.0958
1516.00,-0.0958
1515.00,-0.0958
1514.00,-0.0958
1513.00,-0.0959
1512.00,-0.0959
1511.00,-0.0959
1510.00,-0.0959
1509.00,-0.0960
1508.00,-0.0960
1507.00,-0.0959
1506.00,-0.0959
1505.00,-0.0959
1504.00,-0.0960
1503.00,-0.0959
1502.00,-0.0959
1501.00,-0.0960
1500.00,-0.0959
1499.00,-0.0959
1498.00,-0.0959
1497.00,-0.0958
1496.00,-0.0958
1495.00,-0.0958
1494.00,-0.0958
1493.00,-0.0958
1492.00,-0.0958
1491.00,-0.0958
1490.00,-0.0958
1489.00,-0.0958
1488.00,-0.0958
1487.00,-0.0958
1486.00,-0.0958
1485.00,-0.0958
1484.00,-0.0958
1483.00,-0.0958
1482.00,-0.0958
1481.00,-0.0959
1480.00,-0.0958
1479.00,-0.0959
1478.00,-0.0959
1477.00,-0.0959
1476.00,-0.0959
1475.00,-0.0959
1474.00,-0.0960
1473.00,-0.0960
1472.00,-0.0960
1471.00,-0.0960
1470.00,-0.0961
1469.00,-0.0961
1468.00,-0.0961
1467.00,-0.0961
1466.00,-0.0962
1465.00,-0.0962
1464.00,-0.0962
1463.00,-0.0962
1462.00,-0.0962
1461.00,-0.0962
1460.00,-0.0962
1459.00,-0.0962
1458.00,-0.0961
1457.00,-0.0961
1456.00,-0.0961
1455.00,-0.0961
1454.00,-0.0961
1453.00,-0.0961
1452.00,-0.0961
1451.00,-0.0961
1450.00,-0.0961
1449.00,-0.0961
1448.00,-0.0961
1447.00,-0.0961
1446.00,-0.0960
1445.00,-0.0960
1444.00,-0.0960
1443.00,-0.0960
1442.00,-0.0960
1441.00,-0.0959
1440.00,-0.0959
1439.00,-0.0959
1438.00,-0.0958
1437.00,-0.0958
1436.00,-0.0958
1435.00,-0.0957
1434.00,-0.0958
1433.00,-0.0958
1432.00,-0.0958
1431.00,-0.0958
1430.00,-0.0957
1429.00,-0.0958
1428.00,-0.0958
1427.00,-0.0958
1426.00,-0.0958
1425.00,-0.0958
1424.00,-0.0958
1423.00,-0.0958
1422.00,-0.0958
1421.00,-0.0958
1420.00,-0.0958
1419.00,-0.0958
1418.00,-0.0959
1417.00,-0.0959
1416.00,-0.0960
1415.00,-0.0960
1414.00,-0.0960
1413.00,-0.0960
1412.00,-0.0960
1411.00,-0.0960
1410.00,-0.0960
1409.00,-0.0961
1408.00,-0.0961
1407.00,-0.0961
1406.00,-0.0961
1405.00,-0.0961
1404.00,-0.0961
1403.00,-0.0961
1402.00,-0.0960
1401.00,-0.0960
1400.00,-0.0961
1399.00,-0.0961
1398.00,-0.0960
1397.00,-0.0960
1396.00,-0.0960
1395.00,-0.0960
1394.00,-0.0960
1393.00,-0.0960
1392.00,-0.0960
1391.00,-0.0960
1390.00,-0.0960
1389.00,-0.0960
1388.00,-0.0960
1387.00,-0.0960
1386.00,-0.0960
1385.00,-0.0960
1384.00,-0.0960
1383.00,-0.0959
1382.00,-0.0959
1381.00,-0.0959
1380.00,-0.0959
1379.00,-0.0959
1378.00,-0.0959
1377.00,-0.0959
1376.00,-0.0959
1375.00,-0.0959
1374.00,-0.0959
1373.00,-0.0959
1372.00,-0.0959
1371.00,-0.0959
1370.00,-0.0959
1369.00,-0.0959
1368.00,-0.0959
1367.00,-0.0959
1366.00,-0.0959
1365.00,-0.0959
1364.00,-0.0959
1363.00,-0.0959
1362.00,-0.0960
1361.00,-0.0960
1360.00,-0.0960
1359.00,-0.0960
1358.00,-0.0960
1357.00,-0.0960
1356.00,-0.0960
1355.00,-0.0960
1354.00,-0.0960
1353.00,-0.0961
1352.00,-0.0961
1351.00,-0.0961
1350.00,-0.0961
1349.00,-0.0961
1348.00,-0.0961
1347.00,-0.0961
1346.00,-0.0961
1345.00,-0.0961
1344.00,-0.0961
1343.00,-0.0961
1342.00,-0.0961
1341.00,-0.0960
1340.00,-0.0960
1339.00,-0.0960
1338.00,-0.0960
1337.00,-0.0960
1336.00,-0.0960
1335.00,-0.0960
1334.00,-0.0960
1333.00,-0.0959
1332.00,-0.0959
1331.00,-0.0959
1330.00,-0.0959
1329.00,-0.0959
1328.00,-0.0959
1327.00,-0.0959
1326.00,-0.0959
1325.00,-0.0959
1324.00,-0.0959
1323.00,-0.0959
1322.00,-0.0959
1321.00,-0.0959
1320.00,-0.0959
1319.00,-0.0959
1318.00,-0.0959
1317.00,-0.0959
1316.00,-0.0959
1315.00,-0.0960
1314.00,-0.0960
1313.00,-0.0960
1312.00,-0.0960
1311.00,-0.0960
1310.00,-0.0960
1309.00,-0.0960
1308.00,-0.0961
1307.00,-0.0961
1306.00,-0.0961
1305.00,-0.0961
1304.00,-0.0961
1303.00,-0.0961
1302.00,-0.0961
1301.00,-0.0961
1300.00,-0.0961
1299.00,-0.0961
1298.00,-0.0961
1297.00,-0.0961
1296.00,-0.0961
1295.00,-0.0961
1294.00,-0.0961
1293.00,-0.0961
1292.00,-0.0961
1291.00,-0.0960
1290.00,-0.0960
1289.00,-0.0960
1288.00,-0.0960
1287.00,-0.0959
1286.00,-0.0959
1285.00,-0.0959
1284.00,-0.0959
1283.00,-0.0959
1282.00,-0.0958
1281.00,-0.0958
1280.00,-0.0958
1279.00,-0.0958
1278.00,-0.0957
1277.00,-0.0957
1276.00,-0.0957
1275.00,-0.0957
1274.00,-0.0957
1273.00,-0.0957
1272.00,-0.0957
1271.00,-0.0957
1270.00,-0.0957
1269.00,-0.0957
1268.00,-0.0957
1267.00,-0.0957
1266.00,-0.0957
1265.00,-0.0957
1264.00,-0.0957
1263.00,-0.0957
1262.00,-0.0957
1261.00,-0.0958
1260.00,-0.0958
1259.00,-0.0958
1258.00,-0.0958
1257.00,-0.0958
1256.00,-0.0959
1255.00,-0.0959
1254.00,-0.0959
1253.00,-0.0959
1252.00,-0.0959
1251.00,-0.0959
1250.00,-0.0959
1249.00,-0.0960
1248.00,-0.0960
1247.00,-0.0960
1246.00,-0.0960
1245.00,-0.0960
1244.00,-0.0960
1243.00,-0.0960
1242.00,-0.0960
1241.00,-0.0959
1240.00,-0.0959
1239.00,-0.0959
1238.00,-0.0959
1237.00,-0.0959
1236.00,-0.0959
1235.00,-0.0959
1234.00,-0.0958
1233.00,-0.0958
1232.00,-0.0958
1231.00,-0.0958
1230.00,-0.0958
1229.00,-0.0957
1228.00,-0.0957
1227.00,-0.0957
1226.00,-0.0957
1225.00,-0.0956
1224.00,-0.0956
1223.00,-0.0956
1222.00,-0.0956
1221.00,-0.0956
1220.00,-0.0956
1219.00,-0.0955
1218.00,-0.0955
1217.00,-0.0955
1216.00,-0.0955
1215.00,-0.0955
1214.00,-0.0955
1213.00,-0.0955
1212.00,-0.0955
1211.00,-0.0955
1210.00,-0.0955
1209.00,-0.0955
1208.00,-0.0955
1207.00,-0.0955
1206.00,-0.0955
1205.00,-0.0955
1204.00,-0.0956
1203.00,-0.0956
1202.00,-0.0956
1201.00,-0.0956
1200.00,-0.0956
1199.00,-0.0956
1198.00,-0.0956
1197.00,-0.0956
1196.00,-0.0956
1195.00,-0.0956
1194.00,-0.0956
1193.00,-0.0957
1192.00,-0.0957
1191.00,-0.0957
1190.00,-0.0956
1189.00,-0.0956
1188.00,-0.0956
1187.00,-0.0956
1186.00,-0.0956
1185.00,-0.0956
1184.00,-0.0956
1183.00,-0.0956
1182.00,-0.0956
1181.00,-0.0956
1180.00,-0.0955
1179.00,-0.0955
1178.00,-0.0955
1177.00,-0.0955
1176.00,-0.0955
1175.00,-0.0954
1174.00,-0.0954
1173.00,-0.0954
1172.00,-0.0954
1171.00,-0.0954
1170.00,-0.0953
1169.00,-0.0953
1168.00,-0.0953
1167.00,-0.0953
1166.00,-0.0953
1165.00,-0.0953
1164.00,-0.0953
1163.00,-0.0953
1162.00,-0.0953
1161.00,-0.0953
1160.00,-0.0953
1159.00,-0.0953
1158.00,-0.0953
1157.00,-0.0953
1156.00,-0.0953
1155.00,-0.0953
1154.00,-0.0953
1153.00,-0.0953
1152.00,-0.0953
1151.00,-0.0953
1150.00,-0.0953
1149.00,-0.0953
1148.00,-0.0953
1147.00,-0.0953
1146.00,-0.0953
1145.00,-0.0954
1144.00,-0.0954
1143.00,-0.0954
1142.00,-0.0954
1141.00,-0.0954
1140.00,-0.0954
1139.00,-0.0954
1138.00,-0.0954
1137.00,-0.0954
1136.00,-0.0954
1135.00,-0.0954
1134.00,-0.0954
1133.00,-0.0954
1132.00,-0.0954
1131.00,-0.0954
1130.00,-0.0954
1129.00,-0.0954
1128.00,-0.0953
1127.00,-0.0953
1126.00,-0.0953
1125.00,-0.0953
1124.00,-0.0953
1123.00,-0.0953
1122.00,-0.0953
1121.00,-0.0953
1120.00,-0.0953
1119.00,-0.0953
1118.00,-0.0953
1117.00,-0.0953
1116.00,-0.0952
1115.00,-0.0952
1114.00,-0.0952
1113.00,-0.0952
1112.00,-0.0952
1111.00,-0.0952
1110.00,-0.0952
1109.00,-0.0952
1108.00,-0.0952
1107.00,-0.0952
1106.00,-0.0952
1105.00,-0.0952
1104.00,-0.0952
1103.00,-0.0952
1102.00,-0.0952
1101.00,-0.0952
1100.00,-0.0952
1099.00,-0.0952
1098.00,-0.0952
1097.00,-0.0953
1096.00,-0.0953
1095.00,-0.0953
1094.00,-0.0953
1093.00,-0.0953
1092.00,-0.0953
1091.00,-0.0953
1090.00,-0.0953
1089.00,-0.0953
1088.00,-0.0953
1087.00,-0.0953
1086.00,-0.0953
1085.00,-0.0953
1084.00,-0.0953
1083.00,-0.0953
1082.00,-0.0953
1081.00,-0.0953
1080.00,-0.0952
1079.00,-0.0952
1078.00,-0.0952
1077.00,-0.0952
1076.00,-0.0952
1075.00,-0.0951
1074.00,-0.0951
1073.00,-0.0951
1072.00,-0.0951
1071.00,-0.0950
1070.00,-0.0950
1069.00,-0.0950
1068.00,-0.0950
1067.00,-0.0949
1066.00,-0.0949
1065.00,-0.0949
1064.00,-0.0949
1063.00,-0.0949
1062.00,-0.0949
1061.00,-0.0949
1060.00,-0.0949
1059.00,-0.0949
1058.00,-0.0949
1057.00,-0.0949
1056.00,-0.0949
1055.00,-0.0949
1054.00,-0.0949
1053.00,-0.0949
1052.00,-0.0949
1051.00,-0.0949
1050.00,-0.0949
1049.00,-0.0949
1048.00,-0.0950
1047.00,-0.0950
1046.00,-0.0951
1045.00,-0.0951
1044.00,-0.0951
1043.00,-0.0952
1042.00,-0.0952
1041.00,-0.0952
1040.00,-0.0952
1039.00,-0.0953
1038.00,-0.0953
1037.00,-0.0953
1036.00,-0.0953
1035.00,-0.0954
1034.00,-0.0954
1033.00,-0.0954
1032.00,-0.0954
1031.00,-0.0954
1030.00,-0.0954
1029.00,-0.0955
1028.00,-0.0955
1027.00,-0.0955
1026.00,-0.0955
1025.00,-0.0955
1024.00,-0.0955
1023.00,-0.0956
1022.00,-0.0956
1021.00,-0.0956
1020.00,-0.0956
1019.00,-0.0956
1018.00,-0.0956
1017.00,-0.0956
1016.00,-0.0956
1015.00,-0.0956
1014.00,-0.0956
1013.00,-0.0956
1012.00,-0.0957
1011.00,-0.0957
1010.00,-0.0957
1009.00,-0.0957
1008.00,-0.0957
1007.00,-0.0957
1006.00,-0.0957
1005.00,-0.0957
1004.00,-0.0957
1003.00,-0.0957
1002.00,-0.0958
1001.00,-0.0958
1000.00,-0.0958
999.00,-0.0958
998.00,-0.0958
997.00,-0.0958
996.00,-0.0959
995.00,-0.0959
994.00,-0.0960
993.00,-0.0960
992.00,-0.0960
991.00,-0.0960
990.00,-0.0961
989.00,-0.0961
988.00,-0.0961
987.00,-0.0962
986.00,-0.0962
985.00,-0.0962
984.00,-0.0962
983.00,-0.0963
982.00,-0.0963
981.00,-0.0963
980.00,-0.0963
979.00,-0.0963
978.00,-0.0964
977.00,-0.0964
976.00,-0.0964
975.00,-0.0964
974.00,-0.0964
973.00,-0.0964
972.00,-0.0964
971.00,-0.0964
970.00,-0.0964
969.00,-0.0964
968.00,-0.0964
967.00,-0.0964
966.00,-0.0964
965.00,-0.0964
964.00,-0.0964
963.00,-0.0964
962.00,-0.0964
961.00,-0.0964
960.00,-0.0964
959.00,-0.0964
958.00,-0.0964
957.00,-0.0964
956.00,-0.0964
955.00,-0.0964
954.00,-0.0964
953.00,-0.0964
952.00,-0.0965
951.00,-0.0965
950.00,-0.0965
949.00,-0.0965
948.00,-0.0966
947.00,-0.0966
946.00,-0.0966
945.00,-0.0966
944.00,-0.0966
943.00,-0.0966
942.00,-0.0966
941.00,-0.0967
940.00,-0.0967
939.00,-0.0967
938.00,-0.0967
937.00,-0.0968
936.00,-0.0968
935.00,-0.0968
934.00,-0.0968
933.00,-0.0968
932.00,-0.0969
931.00,-0.0969
930.00,-0.0969
929.00,-0.0969
928.00,-0.0969
927.00,-0.0969
926.00,-0.0969
925.00,-0.0969
924.00,-0.0969
923.00,-0.0969
922.00,-0.0969
921.00,-0.0969
920.00,-0.0969
919.00,-0.0969
918.00,-0.0969
917.00,-0.0969
916.00,-0.0969
915.00,-0.0969
914.00,-0.0969
913.00,-0.0969
912.00,-0.0969
911.00,-0.0968
910.00,-0.0968
909.00,-0.0968
908.00,-0.0968
907.00,-0.0968
906.00,-0.0968
905.00,-0.0968
904.00,-0.0968
903.00,-0.0968
902.00,-0.0968
901.00,-0.0968
900.00,-0.0968
899.00,-0.0968
898.00,-0.0968
897.00,-0.0968
896.00,-0.0969
895.00,-0.0969
894.00,-0.0969
893.00,-0.0969
892.00,-0.0969
891.00,-0.0969
890.00,-0.0969
889.00,-0.0969
888.00,-0.0970
887.00,-0.0970
886.00,-0.0970
885.00,-0.0970
884.00,-0.0970
883.00,-0.0970
882.00,-0.0970
881.00,-0.0970
880.00,-0.0970
879.00,-0.0970
878.00,-0.0970
877.00,-0.0970
876.00,-0.0970
875.00,-0.0970
874.00,-0.0970
873.00,-0.0970
872.00,-0.0970
871.00,-0.0970
870.00,-0.0970
869.00,-0.0970
868.00,-0.0970
867.00,-0.0971
866.00,-0.0970
865.00,-0.0970
864.00,-0.0970
863.00,-0.0970
862.00,-0.0970
861.00,-0.0970
860.00,-0.0970
859.00,-0.0970
858.00,-0.0970
857.00,-0.0969
856.00,-0.0969
855.00,-0.0969
854.00,-0.0969
853.00,-0.0969
852.00,-0.0969
851.00,-0.0969
850.00,-0.0969
849.00,-0.0969
848.00,-0.0969
847.00,-0.0969
846.00,-0.0969
845.00,-0.0969
844.00,-0.0969
843.00,-0.0969
842.00,-0.0969
841.00,-0.0969
840.00,-0.0969
839.00,-0.0969
838.00,-0.0969
837.00,-0.0969
836.00,-0.0969
835.00,-0.0970
834.00,-0.0970
833.00,-0.0970
832.00,-0.0970
831.00,-0.0969
830.00,-0.0969
829.00,-0.0969
828.00,-0.0969
827.00,-0.0969
826.00,-0.0969
825.00,-0.0969
824.00,-0.0969
823.00,-0.0969
822.00,-0.0970
821.00,-0.0970
820.00,-0.0970
819.00,-0.0970
818.00,-0.0970
817.00,-0.0970
816.00,-0.0970
815.00,-0.0970
814.00,-0.0970
813.00,-0.0970
812.00,-0.0970
811.00,-0.0970
810.00,-0.0970
809.00,-0.0970
808.00,-0.0970
807.00,-0.0970
806.00,-0.0970
805.00,-0.0970
804.00,-0.0970
803.00,-0.0970
802.00,-0.0970
801.00,-0.0970
800.00,-0.0970
799.00,-0.0970
798.00,-0.0970
797.00,-0.0970
796.00,-0.0970
795.00,-0.0969
794.00,-0.0969
793.00,-0.0969
792.00,-0.0970
791.00,-0.0970
790.00,-0.0970
789.00,-0.0970
788.00,-0.0970
787.00,-0.0970
786.00,-0.0970
785.00,-0.0970
784.00,-0.0970
783.00,-0.0970
782.00,-0.0970
781.00,-0.0970
780.00,-0.0970
779.00,-0.0971
778.00,-0.0971
777.00,-0.0970
776.00,-0.0970
775.00,-0.0970
774.00,-0.0970
773.00,-0.0970
772.00,-0.0970
771.00,-0.0970
770.00,-0.0970
769.00,-0.0970
768.00,-0.0970
767.00,-0.0970
766.00,-0.0970
765.00,-0.0970
764.00,-0.0970
763.00,-0.0970
762.00,-0.0969
761.00,-0.0969
760.00,-0.0969
759.00,-0.0969
758.00,-0.0969
757.00,-0.0969
756.00,-0.0969
755.00,-0.0969
754.00,-0.0968
753.00,-0.0968
752.00,-0.0968
751.00,-0.0968
750.00,-0.0968
749.00,-0.0968
748.00,-0.0968
747.00,-0.0968
746.00,-0.0968
745.00,-0.0968
744.00,-0.0968
743.00,-0.0968
742.00,-0.0968
741.00,-0.0967
740.00,-0.0967
739.00,-0.0967
738.00,-0.0967
737.00,-0.0968
736.00,-0.0968
735.00,-0.0967
734.00,-0.0967
733.00,-0.0967
732.00,-0.0968
731.00,-0.0968
730.00,-0.0968
729.00,-0.0968
728.00,-0.0968
727.00,-0.0968
726.00,-0.0968
725.00,-0.0968
724.00,-0.0968
723.00,-0.0968
722.00,-0.0968
721.00,-0.0968
720.00,-0.0968
719.00,-0.0968
718.00,-0.0968
717.00,-0.0968
716.00,-0.0968
715.00,-0.0969
714.00,-0.0969
713.00,-0.0969
712.00,-0.0968
711.00,-0.0968
710.00,-0.0968
709.00,-0.0968
708.00,-0.0968
707.00,-0.0968
706.00,-0.0967
705.00,-0.0967
704.00,-0.0967
703.00,-0.0967
702.00,-0.0967
701.00,-0.0967
700.00,-0.0967
699.00,-0.0966
698.00,-0.0966
697.00,-0.0966
696.00,-0.0966
695.00,-0.0966
694.00,-0.0966
693.00,-0.0965
692.00,-0.0965
691.00,-0.0964
690.00,-0.0964
689.00,-0.0964
688.00,-0.0964
687.00,-0.0964
686.00,-0.0964
685.00,-0.0964
684.00,-0.0963
683.00,-0.0964
682.00,-0.0964
681.00,-0.0964
680.00,-0.0963
679.00,-0.0963
678.00,-0.0963
677.00,-0.0964
676.00,-0.0964
675.00,-0.0964
674.00,-0.0964
673.00,-0.0963
672.00,-0.0963
671.00,-0.0962
670.00,-0.0959
669.00,-0.0954
668.00,-0.0949
667.00,-0.0950
666.00,-0.0953
665.00,-0.0958
664.00,-0.0961
663.00,-0.0962
662.00,-0.0963
661.00,-0.0963
660.00,-0.0963
659.00,-0.0963
658.00,-0.0963
657.00,-0.0963
656.00,-0.0963
655.00,-0.0962
654.00,-0.0961
653.00,-0.0961
652.00,-0.0961
651.00,-0.0961
650.00,-0.0961
649.00,-0.0961
648.00,-0.0961
647.00,-0.0961
646.00,-0.0961
645.00,-0.0960
644.00,-0.0961
643.00,-0.0961
642.00,-0.0960
641.00,-0.0960
640.00,-0.0960
639.00,-0.0960
638.00,-0.0959
637.00,-0.0959
636.00,-0.0960
635.00,-0.0960
634.00,-0.0959
633.00,-0.0959
632.00,-0.0959
631.00,-0.0959
630.00,-0.0959
629.00,-0.0959
628.00,-0.0959
627.00,-0.0959
626.00,-0.0959
625.00,-0.0959
624.00,-0.0960
623.00,-0.0960
622.00,-0.0960
621.00,-0.0959
620.00,-0.0959
619.00,-0.0959
618.00,-0.0959
617.00,-0.0959
616.00,-0.0960
615.00,-0.0960
614.00,-0.0960
613.00,-0.0959
612.00,-0.0959
611.00,-0.0959
610.00,-0.0959
609.00,-0.0960
608.00,-0.0960
607.00,-0.0959
606.00,-0.0959
605.00,-0.0959
604.00,-0.0959
603.00,-0.0959
602.00,-0.0959
601.00,-0.0959
600.00,-0.0959
599.00,-0.0959
598.00,-0.0958
597.00,-0.0958
596.00,-0.0958
595.00,-0.0958
594.00,-0.0957
593.00,-0.0957
592.00,-0.0957
591.00,-0.0957
590.00,-0.0957
589.00,-0.0957
588.00,-0.0957
587.00,-0.0957
586.00,-0.0956
585.00,-0.0956
584.00,-0.0956
583.00,-0.0956
582.00,-0.0956
581.00,-0.0957
580.00,-0.0957
579.00,-0.0957
578.00,-0.0957
577.00,-0.0957
576.00,-0.0957
575.00,-0.0957
574.00,-0.0957
573.00,-0.0957
572.00,-0.0956
571.00,-0.0956
570.00,-0.0956
569.00,-0.0956
568.00,-0.0956
567.00,-0.0956
566.00,-0.0956
565.00,-0.0956
564.00,-0.0956
563.00,-0.0956
562.00,-0.0956
561.00,-0.0956
560.00,-0.0956
559.00,-0.0956
558.00,-0.0955
557.00,-0.0955
556.00,-0.0956
555.00,-0.0956
554.00,-0.0956
553.00,-0.0956
552.00,-0.0957
551.00,-0.0957
550.00,-0.0957
549.00,-0.0957
548.00,-0.0958
547.00,-0.0958
546.00,-0.0958
545.00,-0.0958
544.00,-0.0958
543.00,-0.0958
542.00,-0.0958
541.00,-0.0959
540.00,-0.0959
539.00,-0.0959
538.00,-0.0959
537.00,-0.0959
536.00,-0.0960
535.00,-0.0960
534.00,-0.0961
533.00,-0.0961
532.00,-0.0962
531.00,-0.0962
530.00,-0.0962
529.00,-0.0962
528.00,-0.0962
527.00,-0.0962
526.00,-0.0962
525.00,-0.0962
524.00,-0.0964
523.00,-0.0965
522.00,-0.0966
521.00,-0.0967
520.00,-0.0967
519.00,-0.0966
518.00,-0.0966
517.00,-0.0966
516.00,-0.0966
515.00,-0.0966
514.00,-0.0965
513.00,-0.0965
512.00,-0.0966
511.00,-0.0967
510.00,-0.0968
509.00,-0.0969
508.00,-0.0969
507.00,-0.0969
506.00,-0.0969
505.00,-0.0970
504.00,-0.0971
503.00,-0.0972
502.00,-0.0971
501.00,-0.0971
500.00,-0.0970
