Created as New Dataset,Sample 033 By Analyst Date Thursday, March 27 2025
cm-1,A
4000.00,-0.0971
3999.00,-0.0971
3998.00,-0.0971
3997.00,-0.0971
3996.00,-0.0971
3995.00,-0.0970
3994.00,-0.0970
3993.00,-0.0970
3992.00,-0.0970
3991.00,-0.0970
3990.00,-0.0969
3989.00,-0.0969
3988.00,-0.0969
3987.00,-0.0969
3986.00,-0.0969
3985.00,-0.0969
3984.00,-0.0968
3983.00,-0.0968
3982.00,-0.0968
3981.00,-0.0968
3980.00,-0.0968
3979.00,-0.0967
3978.00,-0.0967
3977.00,-0.0967
3976.00,-0.0967
3975.00,-0.0966
3974.00,-0.0966
3973.00,-0.0966
3972.00,-0.0966
3971.00,-0.0966
3970.00,-0.0966
3969.00,-0.0966
3968.00,-0.0966
3967.00,-0.0965
3966.00,-0.0965
3965.00,-0.0965
3964.00,-0.0965
3963.00,-0.0965
3962.00,-0.0965
3961.00,-0.0965
3960.00,-0.0965
3959.00,-0.0965
3958.00,-0.0965
3957.00,-0.0965
3956.00,-0.0966
3955.00,-0.0966
3954.00,-0.0966
3953.00,-0.0966
3952.00,-0.0966
3951.00,-0.0965
3950.00,-0.0965
3949.00,-0.0965
3948.00,-0.0965
3947.00,-0.0965
3946.00,-0.0965
3945.00,-0.0965
3944.00,-0.0965
3943.00,-0.0965
3942.00,-0.0965
3941.00,-0.0965
3940.00,-0.0965
3939.00,-0.0965
3938.00,-0.0965
3937.00,-0.0965
3936.00,-0.0964
3935.00,-0.0964
3934.00,-0.0964
3933.00,-0.0964
3932.00,-0.0964
3931.00,-0.0963
3930.00,-0.0963
3929.00,-0.0963
3928.00,-0.0963
3927.00,-0.0963
3926.00,-0.0962
3925.00,-0.0962
3924.00,-0.0962
3923.00,-0.0962
3922.00,-0.0962
3921.00,-0.0961
3920.00,-0.0961
3919.00,-0.0961
3918.00,-0.0961
3917.00,-0.0961
3916.00,-0.0961
3915.00,-0.0960
3914.00,-0.0961
3913.00,-0.0961
3912.00,-0.0961
3911.00,-0.0961
3910.00,-0.0961
3909.00,-0.0960
3908.00,-0.0960
3907.00,-0.0960
3906.00,-0.0960
3905.00,-0.0959
3904.00,-0.0959
3903.00,-0.0958
3902.00,-0.0958
3901.00,-0.0958
3900.00,-0.0958
3899.00,-0.0958
3898.00,-0.0958
3897.00,-0.0959
3896.00,-0.0959
3895.00,-0.0960
3894.00,-0.0960
3893.00,-0.0960
3892.00,-0.0960
3891.00,-0.0960
3890.00,-0.0960
3889.00,-0.0960
3888.00,-0.0960
3887.00,-0.0960
3886.00,-0.0959
3885.00,-0.0958
3884.00,-0.0959
3883.00,-0.0959
3882.00,-0.0959
3881.00,-0.0959
3880.00,-0.0959
3879.00,-0.0959
3878.00,-0.0959
3877.00,-0.0959
3876.00,-0.0959
3875.00,-0.0958
3874.00,-0.0958
3873.00,-0.0958
3872.00,-0.0959
3871.00,-0.0958
3870.00,-0.0957
3869.00,-0.0957
3868.00,-0.0957
3867.00,-0.0957
3866.00,-0.0957
3865.00,-0.0956
3864.00,-0.0956
3863.00,-0.0957
3862.00,-0.0957
3861.00,-0.0957
3860.00,-0.0957
3859.00,-0.0956
3858.00,-0.0956
3857.00,-0.0956
3856.00,-0.0957
3855.00,-0.0957
3854.00,-0.0956
3853.00,-0.0955
3852.00,-0.0955
3851.00,-0.0956
3850.00,-0.0956
3849.00,-0.0956
3848.00,-0.0956
3847.00,-0.0957
3846.00,-0.0957
3845.00,-0.0958
3844.00,-0.0958
3843.00,-0.0957
3842.00,-0.0957
3841.00,-0.0957
3840.00,-0.0957
3839.00,-0.0957
3838.00,-0.0956
3837.00,-0.0956
3836.00,-0.0955
3835.00,-0.0956
3834.00,-0.0956
3833.00,-0.0956
3832.00,-0.0956
3831.00,-0.0956
3830.00,-0.0956
3829.00,-0.0956
3828.00,-0.0956
3827.00,-0.0956
3826.00,-0.0955
3825.00,-0.0955
3824.00,-0.0955
3823.00,-0.0955
3822.00,-0.0954
3821.00,-0.0953
3820.00,-0.0952
3819.00,-0.0953
3818.00,-0.0953
3817.00,-0.0952
3816.00,-0.0951
3815.00,-0.0951
3814.00,-0.0952
3813.00,-0.0953
3812.00,-0.0952
3811.00,-0.0952
3810.00,-0.0952
3809.00,-0.0953
3808.00,-0.0953
3807.00,-0.0952
3806.00,-0.0952
3805.00,-0.0952
3804.00,-0.0952
3803.00,-0.0952
3802.00,-0.0951
3801.00,-0.0950
3800.00,-0.0950
3799.00,-0.0951
3798.00,-0.0951
3797.00,-0.0951
3796.00,-0.0951
3795.00,-0.0952
3794.00,-0.0952
3793.00,-0.0953
3792.00,-0.0953
3791.00,-0.0953
3790.00,-0.0953
3789.00,-0.0953
3788.00,-0.0954
3787.00,-0.0954
3786.00,-0.0954
3785.00,-0.0954
3784.00,-0.0953
3783.00,-0.0953
3782.00,-0.0953
3781.00,-0.0953
3780.00,-0.0953
3779.00,-0.0953
3778.00,-0.0953
3777.00,-0.0954
3776.00,-0.0953
3775.00,-0.0953
3774.00,-0.0953
3773.00,-0.0953
3772.00,-0.0953
3771.00,-0.0953
3770.00,-0.0952
3769.00,-0.0952
3768.00,-0.0952
3767.00,-0.0952
3766.00,-0.0952
3765.00,-0.0952
3764.00,-0.0952
3763.00,-0.0952
3762.00,-0.0952
3761.00,-0.0952
3760.00,-0.0951
3759.00,-0.0951
3758.00,-0.0951
3757.00,-0.0951
3756.00,-0.0950
3755.00,-0.0950
3754.00,-0.0950
3753.00,-0.0949
3752.00,-0.0949
3751.00,-0.0948
3750.00,-0.0947
3749.00,-0.0946
3748.00,-0.0946
3747.00,-0.0945
3746.00,-0.0945
3745.00,-0.0945
3744.00,-0.0944
3743.00,-0.0945
3742.00,-0.0946
3741.00,-0.0946
3740.00,-0.0945
3739.00,-0.0944
3738.00,-0.0944
3737.00,-0.0944
3736.00,-0.0944
3735.00,-0.0944
3734.00,-0.0943
3733.00,-0.0944
3732.00,-0.0943
3731.00,-0.0943
3730.00,-0.0944
3729.00,-0.0944
3728.00,-0.0944
3727.00,-0.0944
3726.00,-0.0944
3725.00,-0.0944
3724.00,-0.0944
3723.00,-0.0944
3722.00,-0.0944
3721.00,-0.0944
3720.00,-0.0944
3719.00,-0.0945
3718.00,-0.0945
3717.00,-0.0945
3716.00,-0.0945
3715.00,-0.0945
3714.00,-0.0945
3713.00,-0.0945
3712.00,-0.0945
3711.00,-0.0945
3710.00,-0.0945
3709.00,-0.0945
3708.00,-0.0946
3707.00,-0.0946
3706.00,-0.0946
3705.00,-0.0947
3704.00,-0.0948
3703.00,-0.0948
3702.00,-0.0949
3701.00,-0.0950
3700.00,-0.0951
3699.00,-0.0952
3698.00,-0.0953
3697.00,-0.0953
3696.00,-0.0954
3695.00,-0.0955
3694.00,-0.0956
3693.00,-0.0956
3692.00,-0.0957
3691.00,-0.0957
3690.00,-0.0958
3689.00,-0.0958
3688.00,-0.0958
3687.00,-0.0959
3686.00,-0.0960
3685.00,-0.0961
3684.00,-0.0962
3683.00,-0.0962
3682.00,-0.0963
3681.00,-0.0963
3680.00,-0.0964
3679.00,-0.0964
3678.00,-0.0964
3677.00,-0.0964
3676.00,-0.0963
3675.00,-0.0962
3674.00,-0.0961
3673.00,-0.0962
3672.00,-0.0962
3671.00,-0.0961
3670.00,-0.0961
3669.00,-0.0961
3668.00,-0.0962
3667.00,-0.0962
3666.00,-0.0962
3665.00,-0.0962
3664.00,-0.0962
3663.00,-0.0963
3662.00,-0.0963
3661.00,-0.0962
3660.00,-0.0962
3659.00,-0.0962
3658.00,-0.0961
3657.00,-0.0961
3656.00,-0.0960
3655.00,-0.0959
3654.00,-0.0958
3653.00,-0.0957
3652.00,-0.0957
3651.00,-0.0956
3650.00,-0.0955
3649.00,-0.0955
3648.00,-0.0955
3647.00,-0.0955
3646.00,-0.0955
3645.00,-0.0955
3644.00,-0.0955
3643.00,-0.0956
3642.00,-0.0956
3641.00,-0.0956
3640.00,-0.0957
3639.00,-0.0957
3638.00,-0.0957
3637.00,-0.0957
3636.00,-0.0957
3635.00,-0.0956
3634.00,-0.0956
3633.00,-0.0956
3632.00,-0.0955
3631.00,-0.0956
3630.00,-0.0955
3629.00,-0.0954
3628.00,-0.0954
3627.00,-0.0955
3626.00,-0.0955
3625.00,-0.0955
3624.00,-0.0955
3623.00,-0.0955
3622.00,-0.0956
3621.00,-0.0956
3620.00,-0.0956
3619.00,-0.0956
3618.00,-0.0956
3617.00,-0.0956
3616.00,-0.0956
3615.00,-0.0956
3614.00,-0.0956
3613.00,-0.0956
3612.00,-0.0956
3611.00,-0.0956
3610.00,-0.0956
3609.00,-0.0956
3608.00,-0.0955
3607.00,-0.0955
3606.00,-0.0956
3605.00,-0.0956
3604.00,-0.0956
3603.00,-0.0956
3602.00,-0.0956
3601.00,-0.0957
3600.00,-0.0957
3599.00,-0.0957
3598.00,-0.0957
3597.00,-0.0957
3596.00,-0.0957
3595.00,-0.0957
3594.00,-0.0957
3593.00,-0.0957
3592.00,-0.0957
3591.00,-0.0957
3590.00,-0.0957
3589.00,-0.0957
3588.00,-0.0957
3587.00,-0.0957
3586.00,-0.0957
3585.00,-0.0958
3584.00,-0.0958
3583.00,-0.0959
3582.00,-0.0959
3581.00,-0.0960
3580.00,-0.0961
3579.00,-0.0961
3578.00,-0.0962
3577.00,-0.0962
3576.00,-0.0962
3575.00,-0.0962
3574.00,-0.0962
3573.00,-0.0962
3572.00,-0.0962
3571.00,-0.0962
3570.00,-0.0962
3569.00,-0.0962
3568.00,-0.0962
3567.00,-0.0961
3566.00,-0.0962
3565.00,-0.0962
3564.00,-0.0962
3563.00,-0.0962
3562.00,-0.0962
3561.00,-0.0963
3560.00,-0.0963
3559.00,-0.0964
3558.00,-0.0964
3557.00,-0.0964
3556.00,-0.0964
3555.00,-0.0964
3554.00,-0.0964
3553.00,-0.0964
3552.00,-0.0964
3551.00,-0.0964
3550.00,-0.0963
3549.00,-0.0963
3548.00,-0.0963
3547.00,-0.0962
3546.00,-0.0962
3545.00,-0.0962
3544.00,-0.0962
3543.00,-0.0963
3542.00,-0.0963
3541.00,-0.0963
3540.00,-0.0963
3539.00,-0.0963
3538.00,-0.0963
3537.00,-0.0963
3536.00,-0.0963
3535.00,-0.0964
3534.00,-0.0964
3533.00,-0.0964
3532.00,-0.0964
3531.00,-0.0964
3530.00,-0.0964
3529.00,-0.0964
3528.00,-0.0964
3527.00,-0.0964
3526.00,-0.0964
3525.00,-0.0963
3524.00,-0.0964
3523.00,-0.0964
3522.00,-0.0964
3521.00,-0.0964
3520.00,-0.0964
3519.00,-0.0964
3518.00,-0.0964
3517.00,-0.0964
3516.00,-0.0964
3515.00,-0.0964
3514.00,-0.0964
3513.00,-0.0963
3512.00,-0.0963
3511.00,-0.0963
3510.00,-0.0963
3509.00,-0.0963
3508.00,-0.0963
3507.00,-0.0962
3506.00,-0.0962
3505.00,-0.0962
3504.00,-0.0961
3503.00,-0.0961
3502.00,-0.0961
3501.00,-0.0961
3500.00,-0.0961
3499.00,-0.0961
3498.00,-0.0961
3497.00,-0.0961
3496.00,-0.0961
3495.00,-0.0961
3494.00,-0.0962
3493.00,-0.0962
3492.00,-0.0962
3491.00,-0.0962
3490.00,-0.0962
3489.00,-0.0962
3488.00,-0.0962
3487.00,-0.0962
3486.00,-0.0962
3485.00,-0.0963
3484.00,-0.0963
3483.00,-0.0963
3482.00,-0.0963
3481.00,-0.0963
3480.00,-0.0963
3479.00,-0.0964
3478.00,-0.0964
3477.00,-0.0964
3476.00,-0.0965
3475.00,-0.0965
3474.00,-0.0965
3473.00,-0.0965
3472.00,-0.0965
3471.00,-0.0966
3470.00,-0.0966
3469.00,-0.0966
3468.00,-0.0966
3467.00,-0.0966
3466.00,-0.0967
3465.00,-0.0967
3464.00,-0.0967
3463.00,-0.0967
3462.00,-0.0967
3461.00,-0.0967
3460.00,-0.0967
3459.00,-0.0968
3458.00,-0.0968
3457.00,-0.0968
3456.00,-0.0968
3455.00,-0.0968
3454.00,-0.0968
3453.00,-0.0968
3452.00,-0.0968
3451.00,-0.0968
3450.00,-0.0968
3449.00,-0.0968
3448.00,-0.0968
3447.00,-0.0968
3446.00,-0.0968
3445.00,-0.0968
3444.00,-0.0968
3443.00,-0.0969
3442.00,-0.0969
3441.00,-0.0969
3440.00,-0.0969
3439.00,-0.0969
3438.00,-0.0969
3437.00,-0.0969
3436.00,-0.0970
3435.00,-0.0970
3434.00,-0.0970
3433.00,-0.0970
3432.00,-0.0970
3431.00,-0.0971
3430.00,-0.0971
3429.00,-0.0971
3428.00,-0.0971
3427.00,-0.0971
3426.00,-0.0971
3425.00,-0.0971
3424.00,-0.0971
3423.00,-0.0971
3422.00,-0.0971
3421.00,-0.0971
3420.00,-0.0971
3419.00,-0.0971
3418.00,-0.0970
3417.00,-0.0970
3416.00,-0.0970
3415.00,-0.0970
3414.00,-0.0969
3413.00,-0.0969
3412.00,-0.0969
3411.00,-0.0968
3410.00,-0.0968
3409.00,-0.0968
3408.00,-0.0967
3407.00,-0.0967
3406.00,-0.0966
3405.00,-0.0966
3404.00,-0.0965
3403.00,-0.0964
3402.00,-0.0964
3401.00,-0.0963
3400.00,-0.0963
3399.00,-0.0963
3398.00,-0.0962
3397.00,-0.0962
3396.00,-0.0961
3395.00,-0.0961
3394.00,-0.0960
3393.00,-0.0960
3392.00,-0.0960
3391.00,-0.0959
3390.00,-0.0959
3389.00,-0.0959
3388.00,-0.0959
3387.00,-0.0959
3386.00,-0.0959
3385.00,-0.0959
3384.00,-0.0958
3383.00,-0.0958
3382.00,-0.0958
3381.00,-0.0958
3380.00,-0.0958
3379.00,-0.0958
3378.00,-0.0958
3377.00,-0.0957
3376.00,-0.0957
3375.00,-0.0957
3374.00,-0.0957
3373.00,-0.0957
3372.00,-0.0957
3371.00,-0.0957
3370.00,-0.0957
3369.00,-0.0957
3368.00,-0.0957
3367.00,-0.0957
3366.00,-0.0957
3365.00,-0.0957
3364.00,-0.0957
3363.00,-0.0957
3362.00,-0.0957
3361.00,-0.0957
3360.00,-0.0957
3359.00,-0.0957
3358.00,-0.0957
3357.00,-0.0957
3356.00,-0.0956
3355.00,-0.0956
3354.00,-0.0956
3353.00,-0.0956
3352.00,-0.0956
3351.00,-0.0956
3350.00,-0.0956
3349.00,-0.0956
3348.00,-0.0956
3347.00,-0.0956
3346.00,-0.0956
3345.00,-0.0956
3344.00,-0.0956
3343.00,-0.0956
3342.00,-0.0956
3341.00,-0.0956
3340.00,-0.0956
3339.00,-0.0956
3338.00,-0.0956
3337.00,-0.0956
3336.00,-0.0956
3335.00,-0.0956
3334.00,-0.0957
3333.00,-0.0957
3332.00,-0.0957
3331.00,-0.0957
3330.00,-0.0957
3329.00,-0.0957
3328.00,-0.0958
3327.00,-0.0958
3326.00,-0.0958
3325.00,-0.0958
3324.00,-0.0959
3323.00,-0.0959
3322.00,-0.0959
3321.00,-0.0960
3320.00,-0.0960
3319.00,-0.0960
3318.00,-0.0960
3317.00,-0.0961
3316.00,-0.0961
3315.00,-0.0962
3314.00,-0.0962
3313.00,-0.0962
3312.00,-0.0963
3311.00,-0.0963
3310.00,-0.0964
3309.00,-0.0964
3308.00,-0.0965
3307.00,-0.0965
3306.00,-0.0966
3305.00,-0.0967
3304.00,-0.0967
3303.00,-0.0967
3302.00,-0.0967
3301.00,-0.0967
3300.00,-0.0967
3299.00,-0.0966
3298.00,-0.0966
3297.00,-0.0965
3296.00,-0.0964
3295.00,-0.0964
3294.00,-0.0963
3293.00,-0.0962
3292.00,-0.0962
3291.00,-0.0961
3290.00,-0.0960
3289.00,-0.0960
3288.00,-0.0959
3287.00,-0.0958
3286.00,-0.0958
3285.00,-0.0957
3284.00,-0.0957
3283.00,-0.0957
3282.00,-0.0956
3281.00,-0.0956
3280.00,-0.0955
3279.00,-0.0955
3278.00,-0.0955
3277.00,-0.0954
3276.00,-0.0954
3275.00,-0.0954
3274.00,-0.0954
3273.00,-0.0953
3272.00,-0.0953
3271.00,-0.0953
3270.00,-0.0953
3269.00,-0.0953
3268.00,-0.0953
3267.00,-0.0953
3266.00,-0.0953
3265.00,-0.0953
3264.00,-0.0953
3263.00,-0.0953
3262.00,-0.0953
3261.00,-0.0953
3260.00,-0.0953
3259.00,-0.0953
3258.00,-0.0953
3257.00,-0.0953
3256.00,-0.0954
3255.00,-0.0954
3254.00,-0.0954
3253.00,-0.0954
3252.00,-0.0954
3251.00,-0.0954
3250.00,-0.0954
3249.00,-0.0954
3248.00,-0.0954
3247.00,-0.0954
3246.00,-0.0954
3245.00,-0.0954
3244.00,-0.0954
3243.00,-0.0954
3242.00,-0.0954
3241.00,-0.0954
3240.00,-0.0954
3239.00,-0.0954
3238.00,-0.0954
3237.00,-0.0953
3236.00,-0.0953
3235.00,-0.0953
3234.00,-0.0953
3233.00,-0.0953
3232.00,-0.0954
3231.00,-0.0954
3230.00,-0.0954
3229.00,-0.0954
3228.00,-0.0954
3227.00,-0.0954
3226.00,-0.0955
3225.00,-0.0955
3224.00,-0.0955
3223.00,-0.0955
3222.00,-0.0955
3221.00,-0.0956
3220.00,-0.0956
3219.00,-0.0956
3218.00,-0.0956
3217.00,-0.0957
3216.00,-0.0957
3215.00,-0.0957
3214.00,-0.0958
3213.00,-0.0958
3212.00,-0.0958
3211.00,-0.0958
3210.00,-0.0959
3209.00,-0.0959
3208.00,-0.0959
3207.00,-0.0959
3206.00,-0.0960
3205.00,-0.0960
3204.00,-0.0960
3203.00,-0.0960
3202.00,-0.0960
3201.00,-0.0961
3200.00,-0.0961
3199.00,-0.0961
3198.00,-0.0961
3197.00,-0.0961
3196.00,-0.0961
3195.00,-0.0961
3194.00,-0.0960
3193.00,-0.0960
3192.00,-0.0960
3191.00,-0.0960
3190.00,-0.0960
3189.00,-0.0960
3188.00,-0.0960
3187.00,-0.0960
3186.00,-0.0959
3185.00,-0.0959
3184.00,-0.0959
3183.00,-0.0959
3182.00,-0.0959
3181.00,-0.0959
3180.00,-0.0959
3179.00,-0.0959
3178.00,-0.0959
3177.00,-0.0959
3176.00,-0.0959
3175.00,-0.0959
3174.00,-0.0959
3173.00,-0.0959
3172.00,-0.0959
3171.00,-0.0959
3170.00,-0.0959
3169.00,-0.0959
3168.00,-0.0959
3167.00,-0.0959
3166.00,-0.0959
3165.00,-0.0959
3164.00,-0.0959
3163.00,-0.0960
3162.00,-0.0960
3161.00,-0.0960
3160.00,-0.0960
3159.00,-0.0960
3158.00,-0.0960
3157.00,-0.0961
3156.00,-0.0961
3155.00,-0.0961
3154.00,-0.0961
3153.00,-0.0961
3152.00,-0.0961
3151.00,-0.0961
3150.00,-0.0961
3149.00,-0.0961
3148.00,-0.0961
3147.00,-0.0961
3146.00,-0.0961
3145.00,-0.0961
3144.00,-0.0961
3143.00,-0.0961
3142.00,-0.0960
3141.00,-0.0960
3140.00,-0.0960
3139.00,-0.0960
3138.00,-0.0960
3137.00,-0.0960
3136.00,-0.0960
3135.00,-0.0960
3134.00,-0.0960
3133.00,-0.0960
3132.00,-0.0960
3131.00,-0.0960
3130.00,-0.0960
3129.00,-0.0960
3128.00,-0.0960
3127.00,-0.0960
3126.00,-0.0960
3125.00,-0.0960
3124.00,-0.0961
3123.00,-0.0961
3122.00,-0.0961
3121.00,-0.0961
3120.00,-0.0961
3119.00,-0.0961
3118.00,-0.0961
3117.00,-0.0962
3116.00,-0.0962
3115.00,-0.0962
3114.00,-0.0963
3113.00,-0.0963
3112.00,-0.0964
3111.00,-0.0964
3110.00,-0.0964
3109.00,-0.0965
3108.00,-0.0965
3107.00,-0.0965
3106.00,-0.0966
3105.00,-0.0966
3104.00,-0.0966
3103.00,-0.0967
3102.00,-0.0967
3101.00,-0.0967
3100.00,-0.0967
3099.00,-0.0967
3098.00,-0.0967
3097.00,-0.0967
3096.00,-0.0967
3095.00,-0.0967
3094.00,-0.0967
3093.00,-0.0967
3092.00,-0.0967
3091.00,-0.0967
3090.00,-0.0967
3089.00,-0.0968
3088.00,-0.0968
3087.00,-0.0968
3086.00,-0.0968
3085.00,-0.0968
3084.00,-0.0968
3083.00,-0.0968
3082.00,-0.0968
3081.00,-0.0969
3080.00,-0.0969
3079.00,-0.0969
3078.00,-0.0969
3077.00,-0.0969
3076.00,-0.0969
3075.00,-0.0969
3074.00,-0.0969
3073.00,-0.0969
3072.00,-0.0969
3071.00,-0.0969
3070.00,-0.0969
3069.00,-0.0969
3068.00,-0.0969
3067.00,-0.0969
3066.00,-0.0969
3065.00,-0.0969
3064.00,-0.0969
3063.00,-0.0969
3062.00,-0.0970
3061.00,-0.0970
3060.00,-0.0970
3059.00,-0.0970
3058.00,-0.0970
3057.00,-0.0970
3056.00,-0.0970
3055.00,-0.0970
3054.00,-0.0970
3053.00,-0.0970
3052.00,-0.0970
3051.00,-0.0970
3050.00,-0.0971
3049.00,-0.0971
3048.00,-0.0971
3047.00,-0.0971
3046.00,-0.0971
3045.00,-0.0971
3044.00,-0.0971
3043.00,-0.0971
3042.00,-0.0971
3041.00,-0.0971
3040.00,-0.0971
3039.00,-0.0971
3038.00,-0.0971
3037.00,-0.0971
3036.00,-0.0971
3035.00,-0.0971
3034.00,-0.0971
3033.00,-0.0970
3032.00,-0.0970
3031.00,-0.0970
3030.00,-0.0970
3029.00,-0.0970
3028.00,-0.0970
3027.00,-0.0970
3026.00,-0.0970
3025.00,-0.0970
3024.00,-0.0970
3023.00,-0.0969
3022.00,-0.0969
3021.00,-0.0969
3020.00,-0.0969
3019.00,-0.0969
3018.00,-0.0969
3017.00,-0.0969
3016.00,-0.0969
3015.00,-0.0969
3014.00,-0.0969
3013.00,-0.0969
3012.00,-0.0969
3011.00,-0.0969
3010.00,-0.0969
3009.00,-0.0969
3008.00,-0.0969
3007.00,-0.0970
3006.00,-0.0970
3005.00,-0.0970
3004.00,-0.0970
3003.00,-0.0970
3002.00,-0.0970
3001.00,-0.0970
3000.00,-0.0970
2999.00,-0.0970
2998.00,-0.0970
2997.00,-0.0970
2996.00,-0.0970
2995.00,-0.0970
2994.00,-0.0970
2993.00,-0.0970
2992.00,-0.0970
2991.00,-0.0970
2990.00,-0.0970
2989.00,-0.0970
2988.00,-0.0970
2987.00,-0.0970
2986.00,-0.0970
2985.00,-0.0970
2984.00,-0.0970
2983.00,-0.0970
2982.00,-0.0970
2981.00,-0.0970
2980.00,-0.0970
2979.00,-0.0969
2978.00,-0.0969
2977.00,-0.0969
2976.00,-0.0969
2975.00,-0.0969
2974.00,-0.0969
2973.00,-0.0969
2972.00,-0.0969
2971.00,-0.0969
2970.00,-0.0969
2969.00,-0.0969
2968.00,-0.0969
2967.00,-0.0969
2966.00,-0.0969
2965.00,-0.0969
2964.00,-0.0969
2963.00,-0.0969
2962.00,-0.0969
2961.00,-0.0969
2960.00,-0.0969
2959.00,-0.0969
2958.00,-0.0969
2957.00,-0.0969
2956.00,-0.0969
2955.00,-0.0969
2954.00,-0.0969
2953.00,-0.0969
2952.00,-0.0969
2951.00,-0.0969
2950.00,-0.0970
2949.00,-0.0970
2948.00,-0.0970
2947.00,-0.0970
2946.00,-0.0970
2945.00,-0.0970
2944.00,-0.0970
2943.00,-0.0970
2942.00,-0.0970
2941.00,-0.0971
2940.00,-0.0971
2939.00,-0.0971
2938.00,-0.0971
2937.00,-0.0971
2936.00,-0.0971
2935.00,-0.0971
2934.00,-0.0971
2933.00,-0.0971
2932.00,-0.0971
2931.00,-0.0971
2930.00,-0.0971
2929.00,-0.0971
2928.00,-0.0971
2927.00,-0.0971
2926.00,-0.0971
2925.00,-0.0970
2924.00,-0.0970
2923.00,-0.0970
2922.00,-0.0970
2921.00,-0.0970
2920.00,-0.0970
2919.00,-0.0970
2918.00,-0.0970
2917.00,-0.0969
2916.00,-0.0969
2915.00,-0.0969
2914.00,-0.0969
2913.00,-0.0968
2912.00,-0.0968
2911.00,-0.0968
2910.00,-0.0968
2909.00,-0.0968
2908.00,-0.0968
2907.00,-0.0968
2906.00,-0.0968
2905.00,-0.0968
2904.00,-0.0968
2903.00,-0.0968
2902.00,-0.0968
2901.00,-0.0968
2900.00,-0.0968
2899.00,-0.0968
2898.00,-0.0968
2897.00,-0.0968
2896.00,-0.0969
2895.00,-0.0969
2894.00,-0.0969
2893.00,-0.0969
2892.00,-0.0969
2891.00,-0.0969
2890.00,-0.0969
2889.00,-0.0970
2888.00,-0.0970
2887.00,-0.0970
2886.00,-0.0970
2885.00,-0.0970
2884.00,-0.0969
2883.00,-0.0969
2882.00,-0.0969
2881.00,-0.0969
2880.00,-0.0969
2879.00,-0.0969
2878.00,-0.0969
2877.00,-0.0969
2876.00,-0.0969
2875.00,-0.0969
2874.00,-0.0969
2873.00,-0.0969
2872.00,-0.0969
2871.00,-0.0969
2870.00,-0.0968
2869.00,-0.0968
2868.00,-0.0968
2867.00,-0.0968
2866.00,-0.0968
2865.00,-0.0968
2864.00,-0.0968
2863.00,-0.0967
2862.00,-0.0967
2861.00,-0.0967
2860.00,-0.0968
2859.00,-0.0968
2858.00,-0.0968
2857.00,-0.0968
2856.00,-0.0968
2855.00,-0.0968
2854.00,-0.0969
2853.00,-0.0969
2852.00,-0.0969
2851.00,-0.0969
2850.00,-0.0969
2849.00,-0.0969
2848.00,-0.0969
2847.00,-0.0969
2846.00,-0.0969
2845.00,-0.0969
2844.00,-0.0969
2843.00,-0.0969
2842.00,-0.0969
2841.00,-0.0969
2840.00,-0.0969
2839.00,-0.0969
2838.00,-0.0969
2837.00,-0.0969
2836.00,-0.0969
2835.00,-0.0969
2834.00,-0.0969
2833.00,-0.0969
2832.00,-0.0969
2831.00,-0.0969
2830.00,-0.0969
2829.00,-0.0969
2828.00,-0.0969
2827.00,-0.0969
2826.00,-0.0969
2825.00,-0.0969
2824.00,-0.0968
2823.00,-0.0968
2822.00,-0.0968
2821.00,-0.0968
2820.00,-0.0967
2819.00,-0.0967
2818.00,-0.0967
2817.00,-0.0967
2816.00,-0.0967
2815.00,-0.0966
2814.00,-0.0966
2813.00,-0.0966
2812.00,-0.0966
2811.00,-0.0966
2810.00,-0.0966
2809.00,-0.0966
2808.00,-0.0966
2807.00,-0.0966
2806.00,-0.0966
2805.00,-0.0966
2804.00,-0.0966
2803.00,-0.0966
2802.00,-0.0966
2801.00,-0.0966
2800.00,-0.0966
2799.00,-0.0966
2798.00,-0.0966
2797.00,-0.0966
2796.00,-0.0966
2795.00,-0.0967
2794.00,-0.0967
2793.00,-0.0967
2792.00,-0.0967
2791.00,-0.0967
2790.00,-0.0967
2789.00,-0.0967
2788.00,-0.0967
2787.00,-0.0967
2786.00,-0.0967
2785.00,-0.0967
2784.00,-0.0967
2783.00,-0.0967
2782.00,-0.0967
2781.00,-0.0967
2780.00,-0.0967
2779.00,-0.0967
2778.00,-0.0967
2777.00,-0.0966
2776.00,-0.0966
2775.00,-0.0966
2774.00,-0.0966
2773.00,-0.0966
2772.00,-0.0966
2771.00,-0.0966
2770.00,-0.0966
2769.00,-0.0966
2768.00,-0.0965
2767.00,-0.0965
2766.00,-0.0965
2765.00,-0.0965
2764.00,-0.0965
2763.00,-0.0965
2762.00,-0.0965
2761.00,-0.0964
2760.00,-0.0964
2759.00,-0.0964
2758.00,-0.0964
2757.00,-0.0964
2756.00,-0.0964
2755.00,-0.0964
2754.00,-0.0964
2753.00,-0.0964
2752.00,-0.0964
2751.00,-0.0964
2750.00,-0.0964
2749.00,-0.0964
2748.00,-0.0964
2747.00,-0.0964
2746.00,-0.0964
2745.00,-0.0965
2744.00,-0.0965
2743.00,-0.0965
2742.00,-0.0965
2741.00,-0.0965
2740.00,-0.0965
2739.00,-0.0965
2738.00,-0.0965
2737.00,-0.0966
2736.00,-0.0966
2735.00,-0.0966
2734.00,-0.0966
2733.00,-0.0966
2732.00,-0.0966
2731.00,-0.0966
2730.00,-0.0966
2729.00,-0.0966
2728.00,-0.0965
2727.00,-0.0965
2726.00,-0.0965
2725.00,-0.0965
2724.00,-0.0964
2723.00,-0.0964
2722.00,-0.0964
2721.00,-0.0964
2720.00,-0.0963
2719.00,-0.0963
2718.00,-0.0963
2717.00,-0.0963
2716.00,-0.0962
2715.00,-0.0962
2714.00,-0.0962
2713.00,-0.0962
2712.00,-0.0962
2711.00,-0.0961
2710.00,-0.0961
2709.00,-0.0961
2708.00,-0.0961
2707.00,-0.0960
2706.00,-0.0960
2705.00,-0.0960
2704.00,-0.0960
2703.00,-0.0960
2702.00,-0.0960
2701.00,-0.0960
2700.00,-0.0960
2699.00,-0.0960
2698.00,-0.0960
2697.00,-0.0960
2696.00,-0.0960
2695.00,-0.0960
2694.00,-0.0960
2693.00,-0.0960
2692.00,-0.0960
2691.00,-0.0960
2690.00,-0.0960
2689.00,-0.0960
2688.00,-0.0960
2687.00,-0.0961
2686.00,-0.0961
2685.00,-0.0961
2684.00,-0.0961
2683.00,-0.0961
2682.00,-0.0961
2681.00,-0.0962
2680.00,-0.0962
2679.00,-0.0962
2678.00,-0.0962
2677.00,-0.0962
2676.00,-0.0962
2675.00,-0.0962
2674.00,-0.0962
2673.00,-0.0962
2672.00,-0.0962
2671.00,-0.0962
2670.00,-0.0962
2669.00,-0.0962
2668.00,-0.0962
2667.00,-0.0961
2666.00,-0.0961
2665.00,-0.0961
2664.00,-0.0961
2663.00,-0.0960
2662.00,-0.0960
2661.00,-0.0959
2660.00,-0.0959
2659.00,-0.0959
2658.00,-0.0959
2657.00,-0.0958
2656.00,-0.0958
2655.00,-0.0958
2654.00,-0.0957
2653.00,-0.0957
2652.00,-0.0957
2651.00,-0.0957
2650.00,-0.0956
2649.00,-0.0956
2648.00,-0.0956
2647.00,-0.0956
2646.00,-0.0956
2645.00,-0.0956
2644.00,-0.0956
2643.00,-0.0956
2642.00,-0.0956
2641.00,-0.0956
2640.00,-0.0956
2639.00,-0.0956
2638.00,-0.0956
2637.00,-0.0956
2636.00,-0.0956
2635.00,-0.0956
2634.00,-0.0956
2633.00,-0.0956
2632.00,-0.0956
2631.00,-0.0957
2630.00,-0.0957
2629.00,-0.0957
2628.00,-0.0957
2627.00,-0.0957
2626.00,-0.0957
2625.00,-0.0958
2624.00,-0.0958
2623.00,-0.0958
2622.00,-0.0958
2621.00,-0.0958
2620.00,-0.0958
2619.00,-0.0958
2618.00,-0.0958
2617.00,-0.0958
2616.00,-0.0958
2615.00,-0.0958
2614.00,-0.0958
2613.00,-0.0958
2612.00,-0.0958
2611.00,-0.0958
2610.00,-0.0958
2609.00,-0.0958
2608.00,-0.0958
2607.00,-0.0958
2606.00,-0.0958
2605.00,-0.0958
2604.00,-0.0957
2603.00,-0.0957
2602.00,-0.0957
2601.00,-0.0957
2600.00,-0.0957
2599.00,-0.0957
2598.00,-0.0957
2597.00,-0.0957
2596.00,-0.0956
2595.00,-0.0956
2594.00,-0.0956
2593.00,-0.0956
2592.00,-0.0956
2591.00,-0.0956
2590.00,-0.0956
2589.00,-0.0957
2588.00,-0.0957
2587.00,-0.0957
2586.00,-0.0957
2585.00,-0.0957
2584.00,-0.0957
2583.00,-0.0957
2582.00,-0.0957
2581.00,-0.0957
2580.00,-0.0958
2579.00,-0.0958
2578.00,-0.0958
2577.00,-0.0958
2576.00,-0.0958
2575.00,-0.0958
2574.00,-0.0958
2573.00,-0.0958
2572.00,-0.0958
2571.00,-0.0958
2570.00,-0.0958
2569.00,-0.0958
2568.00,-0.0958
2567.00,-0.0958
2566.00,-0.0957
2565.00,-0.0957
2564.00,-0.0957
2563.00,-0.0957
2562.00,-0.0957
2561.00,-0.0956
2560.00,-0.0956
2559.00,-0.0956
2558.00,-0.0956
2557.00,-0.0955
2556.00,-0.0955
2555.00,-0.0955
2554.00,-0.0955
2553.00,-0.0954
2552.00,-0.0954
2551.00,-0.0954
2550.00,-0.0953
2549.00,-0.0953
2548.00,-0.0953
2547.00,-0.0952
2546.00,-0.0952
2545.00,-0.0952
2544.00,-0.0952
2543.00,-0.0952
2542.00,-0.0951
2541.00,-0.0951
2540.00,-0.0951
2539.00,-0.0951
2538.00,-0.0951
2537.00,-0.0951
2536.00,-0.0951
2535.00,-0.0951
2534.00,-0.0951
2533.00,-0.0951
2532.00,-0.0951
2531.00,-0.0952
2530.00,-0.0952
2529.00,-0.0952
2528.00,-0.0952
2527.00,-0.0952
2526.00,-0.0952
2525.00,-0.0952
2524.00,-0.0952
2523.00,-0.0952
2522.00,-0.0952
2521.00,-0.0952
2520.00,-0.0952
2519.00,-0.0952
2518.00,-0.0952
2517.00,-0.0951
2516.00,-0.0951
2515.00,-0.0951
2514.00,-0.0951
2513.00,-0.0951
2512.00,-0.0950
2511.00,-0.0950
2510.00,-0.0950
2509.00,-0.0949
2508.00,-0.0949
2507.00,-0.0949
2506.00,-0.0948
2505.00,-0.0948
2504.00,-0.0948
2503.00,-0.0947
2502.00,-0.0947
2501.00,-0.0947
2500.00,-0.0946
2499.00,-0.0946
2498.00,-0.0946
2497.00,-0.0945
2496.00,-0.0945
2495.00,-0.0945
2494.00,-0.0945
2493.00,-0.0945
2492.00,-0.0944
2491.00,-0.0944
2490.00,-0.0944
2489.00,-0.0944
2488.00,-0.0944
2487.00,-0.0944
2486.00,-0.0944
2485.00,-0.0944
2484.00,-0.0944
2483.00,-0.0944
2482.00,-0.0944
2481.00,-0.0944
2480.00,-0.0944
2479.00,-0.0943
2478.00,-0.0943
2477.00,-0.0943
2476.00,-0.0944
2475.00,-0.0944
2474.00,-0.0944
2473.00,-0.0944
2472.00,-0.0944
2471.00,-0.0944
2470.00,-0.0944
2469.00,-0.0944
2468.00,-0.0944
2467.00,-0.0944
2466.00,-0.0944
2465.00,-0.0944
2464.00,-0.0944
2463.00,-0.0944
2462.00,-0.0944
2461.00,-0.0943
2460.00,-0.0943
2459.00,-0.0943
2458.00,-0.0943
2457.00,-0.0943
2456.00,-0.0943
2455.00,-0.0943
2454.00,-0.0943
2453.00,-0.0943
2452.00,-0.0943
2451.00,-0.0943
2450.00,-0.0942
2449.00,-0.0942
2448.00,-0.0942
2447.00,-0.0942
2446.00,-0.0942
2445.00,-0.0942
2444.00,-0.0943
2443.00,-0.0943
2442.00,-0.0943
2441.00,-0.0943
2440.00,-0.0943
2439.00,-0.0943
2438.00,-0.0944
2437.00,-0.0944
2436.00,-0.0944
2435.00,-0.0944
2434.00,-0.0945
2433.00,-0.0945
2432.00,-0.0945
2431.00,-0.0945
2430.00,-0.0946
2429.00,-0.0946
2428.00,-0.0946
2427.00,-0.0947
2426.00,-0.0947
2425.00,-0.0948
2424.00,-0.0948
2423.00,-0.0949
2422.00,-0.0949
2421.00,-0.0949
2420.00,-0.0950
2419.00,-0.0950
2418.00,-0.0950
2417.00,-0.0951
2416.00,-0.0951
2415.00,-0.0951
2414.00,-0.0951
2413.00,-0.0951
2412.00,-0.0951
2411.00,-0.0951
2410.00,-0.0951
2409.00,-0.0951
2408.00,-0.0951
2407.00,-0.0951
2406.00,-0.0951
2405.00,-0.0951
2404.00,-0.0950
2403.00,-0.0950
2402.00,-0.0950
2401.00,-0.0949
2400.00,-0.0949
2399.00,-0.0949
2398.00,-0.0949
2397.00,-0.0948
2396.00,-0.0948
2395.00,-0.0948
2394.00,-0.0947
2393.00,-0.0947
2392.00,-0.0947
2391.00,-0.0947
2390.00,-0.0947
2389.00,-0.0947
2388.00,-0.0947
2387.00,-0.0947
2386.00,-0.0947
2385.00,-0.0947
2384.00,-0.0947
2383.00,-0.0947
2382.00,-0.0947
2381.00,-0.0947
2380.00,-0.0947
2379.00,-0.0947
2378.00,-0.0947
2377.00,-0.0947
2376.00,-0.0947
2375.00,-0.0947
2374.00,-0.0947
2373.00,-0.0947
2372.00,-0.0947
2371.00,-0.0946
2370.00,-0.0946
2369.00,-0.0946
2368.00,-0.0946
2367.00,-0.0946
2366.00,-0.0946
2365.00,-0.0946
2364.00,-0.0946
2363.00,-0.0946
2362.00,-0.0946
2361.00,-0.0946
2360.00,-0.0947
2359.00,-0.0947
2358.00,-0.0947
2357.00,-0.0947
2356.00,-0.0947
2355.00,-0.0946
2354.00,-0.0946
2353.00,-0.0946
2352.00,-0.0946
2351.00,-0.0946
2350.00,-0.0946
2349.00,-0.0946
2348.00,-0.0946
2347.00,-0.0946
2346.00,-0.0946
2345.00,-0.0946
2344.00,-0.0946
2343.00,-0.0946
2342.00,-0.0946
2341.00,-0.0946
2340.00,-0.0945
2339.00,-0.0945
2338.00,-0.0946
2337.00,-0.0946
2336.00,-0.0946
2335.00,-0.0946
2334.00,-0.0946
2333.00,-0.0946
2332.00,-0.0946
2331.00,-0.0946
2330.00,-0.0947
2329.00,-0.0946
2328.00,-0.0946
2327.00,-0.0946
2326.00,-0.0946
2325.00,-0.0946
2324.00,-0.0945
2323.00,-0.0945
2322.00,-0.0945
2321.00,-0.0944
2320.00,-0.0944
2319.00,-0.0944
2318.00,-0.0943
2317.00,-0.0943
2316.00,-0.0942
2315.00,-0.0942
2314.00,-0.0942
2313.00,-0.0942
2312.00,-0.0943
2311.00,-0.0943
2310.00,-0.0943
2309.00,-0.0943
2308.00,-0.0943
2307.00,-0.0943
2306.00,-0.0943
2305.00,-0.0943
2304.00,-0.0943
2303.00,-0.0943
2302.00,-0.0942
2301.00,-0.0942
2300.00,-0.0942
2299.00,-0.0942
2298.00,-0.0942
2297.00,-0.0942
2296.00,-0.0941
2295.00,-0.0941
2294.00,-0.0941
2293.00,-0.0941
2292.00,-0.0941
2291.00,-0.0941
2290.00,-0.0940
2289.00,-0.0940
2288.00,-0.0940
2287.00,-0.0940
2286.00,-0.0940
2285.00,-0.0939
2284.00,-0.0939
2283.00,-0.0939
2282.00,-0.0939
2281.00,-0.0939
2280.00,-0.0939
2279.00,-0.0938
2278.00,-0.0938
2277.00,-0.0938
2276.00,-0.0938
2275.00,-0.0938
2274.00,-0.0938
2273.00,-0.0938
2272.00,-0.0938
2271.00,-0.0938
2270.00,-0.0939
2269.00,-0.0939
2268.00,-0.0939
2267.00,-0.0939
2266.00,-0.0939
2265.00,-0.0940
2264.00,-0.0940
2263.00,-0.0940
2262.00,-0.0940
2261.00,-0.0940
2260.00,-0.0940
2259.00,-0.0940
2258.00,-0.0941
2257.00,-0.0941
2256.00,-0.0941
2255.00,-0.0941
2254.00,-0.0941
2253.00,-0.0941
2252.00,-0.0941
2251.00,-0.0941
2250.00,-0.0941
2249.00,-0.0941
2248.00,-0.0941
2247.00,-0.0941
2246.00,-0.0941
2245.00,-0.0940
2244.00,-0.0940
2243.00,-0.0940
2242.00,-0.0940
2241.00,-0.0939
2240.00,-0.0939
2239.00,-0.0939
2238.00,-0.0938
2237.00,-0.0938
2236.00,-0.0937
2235.00,-0.0937
2234.00,-0.0937
2233.00,-0.0936
2232.00,-0.0936
2231.00,-0.0935
2230.00,-0.0935
2229.00,-0.0935
2228.00,-0.0935
2227.00,-0.0934
2226.00,-0.0934
2225.00,-0.0934
2224.00,-0.0933
2223.00,-0.0933
2222.00,-0.0933
2221.00,-0.0933
2220.00,-0.0933
2219.00,-0.0933
2218.00,-0.0933
2217.00,-0.0933
2216.00,-0.0933
2215.00,-0.0933
2214.00,-0.0933
2213.00,-0.0933
2212.00,-0.0933
2211.00,-0.0934
2210.00,-0.0934
2209.00,-0.0934
2208.00,-0.0934
2207.00,-0.0934
2206.00,-0.0934
2205.00,-0.0934
2204.00,-0.0934
2203.00,-0.0934
2202.00,-0.0934
2201.00,-0.0933
2200.00,-0.0933
2199.00,-0.0933
2198.00,-0.0933
2197.00,-0.0932
2196.00,-0.0932
2195.00,-0.0932
2194.00,-0.0932
2193.00,-0.0931
2192.00,-0.0931
2191.00,-0.0931
2190.00,-0.0930
2189.00,-0.0930
2188.00,-0.0929
2187.00,-0.0929
2186.00,-0.0929
2185.00,-0.0928
2184.00,-0.0928
2183.00,-0.0928
2182.00,-0.0928
2181.00,-0.0927
2180.00,-0.0927
2179.00,-0.0927
2178.00,-0.0927
2177.00,-0.0927
2176.00,-0.0927
2175.00,-0.0927
2174.00,-0.0927
2173.00,-0.0927
2172.00,-0.0927
2171.00,-0.0927
2170.00,-0.0927
2169.00,-0.0927
2168.00,-0.0928
2167.00,-0.0928
2166.00,-0.0928
2165.00,-0.0929
2164.00,-0.0929
2163.00,-0.0929
2162.00,-0.0930
2161.00,-0.0930
2160.00,-0.0930
2159.00,-0.0931
2158.00,-0.0931
2157.00,-0.0931
2156.00,-0.0931
2155.00,-0.0932
2154.00,-0.0932
2153.00,-0.0932
2152.00,-0.0932
2151.00,-0.0932
2150.00,-0.0932
2149.00,-0.0932
2148.00,-0.0932
2147.00,-0.0932
2146.00,-0.0932
2145.00,-0.0932
2144.00,-0.0932
2143.00,-0.0931
2142.00,-0.0931
2141.00,-0.0931
2140.00,-0.0930
2139.00,-0.0930
2138.00,-0.0930
2137.00,-0.0930
2136.00,-0.0929
2135.00,-0.0929
2134.00,-0.0929
2133.00,-0.0928
2132.00,-0.0928
2131.00,-0.0928
2130.00,-0.0927
2129.00,-0.0927
2128.00,-0.0927
2127.00,-0.0927
2126.00,-0.0926
2125.00,-0.0926
2124.00,-0.0926
2123.00,-0.0926
2122.00,-0.0926
2121.00,-0.0926
2120.00,-0.0926
2119.00,-0.0926
2118.00,-0.0926
2117.00,-0.0926
2116.00,-0.0926
2115.00,-0.0926
2114.00,-0.0926
2113.00,-0.0926
2112.00,-0.0926
2111.00,-0.0926
2110.00,-0.0927
2109.00,-0.0927
2108.00,-0.0927
2107.00,-0.0927
2106.00,-0.0927
2105.00,-0.0927
2104.00,-0.0927
2103.00,-0.0927
2102.00,-0.0927
2101.00,-0.0927
2100.00,-0.0927
2099.00,-0.0928
2098.00,-0.0928
2097.00,-0.0928
2096.00,-0.0928
2095.00,-0.0928
2094.00,-0.0928
2093.00,-0.0928
2092.00,-0.0929
2091.00,-0.0929
2090.00,-0.0929
2089.00,-0.0929
2088.00,-0.0929
2087.00,-0.0929
2086.00,-0.0929
2085.00,-0.0929
2084.00,-0.0929
2083.00,-0.0929
2082.00,-0.0929
2081.00,-0.0929
2080.00,-0.0929
2079.00,-0.0929
2078.00,-0.0928
2077.00,-0.0928
2076.00,-0.0928
2075.00,-0.0928
2074.00,-0.0928
2073.00,-0.0927
2072.00,-0.0927
2071.00,-0.0927
2070.00,-0.0927
2069.00,-0.0927
2068.00,-0.0927
2067.00,-0.0926
2066.00,-0.0926
2065.00,-0.0926
2064.00,-0.0926
2063.00,-0.0926
2062.00,-0.0926
2061.00,-0.0926
2060.00,-0.0926
2059.00,-0.0926
2058.00,-0.0926
2057.00,-0.0926
2056.00,-0.0926
2055.00,-0.0926
2054.00,-0.0926
2053.00,-0.0926
2052.00,-0.0926
2051.00,-0.0926
2050.00,-0.0926
2049.00,-0.0927
2048.00,-0.0927
2047.00,-0.0927
2046.00,-0.0927
2045.00,-0.0927
2044.00,-0.0928
2043.00,-0.0928
2042.00,-0.0928
2041.00,-0.0929
2040.00,-0.0929
2039.00,-0.0929
2038.00,-0.0929
2037.00,-0.0930
2036.00,-0.0930
2035.00,-0.0930
2034.00,-0.0930
2033.00,-0.0930
2032.00,-0.0930
2031.00,-0.0930
2030.00,-0.0930
2029.00,-0.0929
2028.00,-0.0929
2027.00,-0.0929
2026.00,-0.0928
2025.00,-0.0928
2024.00,-0.0928
2023.00,-0.0927
2022.00,-0.0927
2021.00,-0.0927
2020.00,-0.0926
2019.00,-0.0926
2018.00,-0.0926
2017.00,-0.0925
2016.00,-0.0925
2015.00,-0.0925
2014.00,-0.0925
2013.00,-0.0925
2012.00,-0.0925
2011.00,-0.0925
2010.00,-0.0925
2009.00,-0.0925
2008.00,-0.0925
2007.00,-0.0925
2006.00,-0.0926
2005.00,-0.0926
2004.00,-0.0927
2003.00,-0.0927
2002.00,-0.0928
2001.00,-0.0928
2000.00,-0.0929
1999.00,-0.0929
1998.00,-0.0930
1997.00,-0.0930
1996.00,-0.0931
1995.00,-0.0931
1994.00,-0.0932
1993.00,-0.0933
1992.00,-0.0933
1991.00,-0.0934
1990.00,-0.0935
1989.00,-0.0935
1988.00,-0.0936
1987.00,-0.0937
1986.00,-0.0937
1985.00,-0.0938
1984.00,-0.0938
1983.00,-0.0939
1982.00,-0.0939
1981.00,-0.0939
1980.00,-0.0939
1979.00,-0.0940
1978.00,-0.0940
1977.00,-0.0940
1976.00,-0.0940
1975.00,-0.0939
1974.00,-0.0939
1973.00,-0.0939
1972.00,-0.0938
1971.00,-0.0938
1970.00,-0.0937
1969.00,-0.0936
1968.00,-0.0936
1967.00,-0.0936
1966.00,-0.0936
1965.00,-0.0935
1964.00,-0.0935
1963.00,-0.0935
1962.00,-0.0935
1961.00,-0.0936
1960.00,-0.0936
1959.00,-0.0937
1958.00,-0.0937
1957.00,-0.0938
1956.00,-0.0939
1955.00,-0.0939
1954.00,-0.0940
1953.00,-0.0941
1952.00,-0.0942
1951.00,-0.0943
1950.00,-0.0944
1949.00,-0.0944
1948.00,-0.0945
1947.00,-0.0945
1946.00,-0.0945
1945.00,-0.0945
1944.00,-0.0945
1943.00,-0.0945
1942.00,-0.0945
1941.00,-0.0945
1940.00,-0.0944
1939.00,-0.0944
1938.00,-0.0943
1937.00,-0.0942
1936.00,-0.0941
1935.00,-0.0941
1934.00,-0.0940
1933.00,-0.0939
1932.00,-0.0938
1931.00,-0.0938
1930.00,-0.0937
1929.00,-0.0937
1928.00,-0.0936
1927.00,-0.0936
1926.00,-0.0935
1925.00,-0.0935
1924.00,-0.0935
1923.00,-0.0935
1922.00,-0.0935
1921.00,-0.0935
1920.00,-0.0935
1919.00,-0.0934
1918.00,-0.0934
1917.00,-0.0935
1916.00,-0.0934
1915.00,-0.0934
1914.00,-0.0934
1913.00,-0.0934
1912.00,-0.0933
1911.00,-0.0933
1910.00,-0.0933
1909.00,-0.0932
1908.00,-0.0932
1907.00,-0.0932
1906.00,-0.0932
1905.00,-0.0932
1904.00,-0.0932
1903.00,-0.0932
1902.00,-0.0932
1901.00,-0.0932
1900.00,-0.0932
1899.00,-0.0932
1898.00,-0.0932
1897.00,-0.0932
1896.00,-0.0932
1895.00,-0.0933
1894.00,-0.0933
1893.00,-0.0933
1892.00,-0.0934
1891.00,-0.0934
1890.00,-0.0934
1889.00,-0.0935
1888.00,-0.0935
1887.00,-0.0936
1886.00,-0.0936
1885.00,-0.0937
1884.00,-0.0937
1883.00,-0.0938
1882.00,-0.0938
1881.00,-0.0938
1880.00,-0.0939
1879.00,-0.0939
1878.00,-0.0939
1877.00,-0.0940
1876.00,-0.0940
1875.00,-0.0940
1874.00,-0.0940
1873.00,-0.0940
1872.00,-0.0940
1871.00,-0.0940
1870.00,-0.0940
1869.00,-0.0940
1868.00,-0.0940
1867.00,-0.0940
1866.00,-0.0939
1865.00,-0.0939
1864.00,-0.0939
1863.00,-0.0938
1862.00,-0.0938
1861.00,-0.0938
1860.00,-0.0938
1859.00,-0.0938
1858.00,-0.0939
1857.00,-0.0939
1856.00,-0.0940
1855.00,-0.0940
1854.00,-0.0941
1853.00,-0.0941
1852.00,-0.0942
1851.00,-0.0943
1850.00,-0.0943
1849.00,-0.0944
1848.00,-0.0944
1847.00,-0.0945
1846.00,-0.0946
1845.00,-0.0946
1844.00,-0.0946
1843.00,-0.0947
1842.00,-0.0948
1841.00,-0.0948
1840.00,-0.0948
1839.00,-0.0948
1838.00,-0.0949
1837.00,-0.0949
1836.00,-0.0949
1835.00,-0.0949
1834.00,-0.0949
1833.00,-0.0949
1832.00,-0.0949
1831.00,-0.0948
1830.00,-0.0949
1829.00,-0.0949
1828.00,-0.0949
1827.00,-0.0949
1826.00,-0.0949
1825.00,-0.0949
1824.00,-0.0950
1823.00,-0.0950
1822.00,-0.0950
1821.00,-0.0950
1820.00,-0.0950
1819.00,-0.0951
1818.00,-0.0951
1817.00,-0.0951
1816.00,-0.0951
1815.00,-0.0951
1814.00,-0.0951
1813.00,-0.0952
1812.00,-0.0952
1811.00,-0.0952
1810.00,-0.0952
1809.00,-0.0952
1808.00,-0.0952
1807.00,-0.0952
1806.00,-0.0953
1805.00,-0.0953
1804.00,-0.0953
1803.00,-0.0953
1802.00,-0.0953
1801.00,-0.0954
1800.00,-0.0954
1799.00,-0.0955
1798.00,-0.0955
1797.00,-0.0955
1796.00,-0.0955
1795.00,-0.0956
1794.00,-0.0956
1793.00,-0.0956
1792.00,-0.0957
1791.00,-0.0957
1790.00,-0.0958
1789.00,-0.0958
1788.00,-0.0958
1787.00,-0.0958
1786.00,-0.0959
1785.00,-0.0960
1784.00,-0.0960
1783.00,-0.0960
1782.00,-0.0961
1781.00,-0.0961
1780.00,-0.0961
1779.00,-0.0961
1778.00,-0.0961
1777.00,-0.0961
1776.00,-0.0961
1775.00,-0.0961
1774.00,-0.0961
1773.00,-0.0961
1772.00,-0.0961
1771.00,-0.0961
1770.00,-0.0961
1769.00,-0.0961
1768.00,-0.0961
1767.00,-0.0961
1766.00,-0.0961
1765.00,-0.0961
1764.00,-0.0960
1763.00,-0.0960
1762.00,-0.0960
1761.00,-0.0960
1760.00,-0.0959
1759.00,-0.0959
1758.00,-0.0959
1757.00,-0.0959
1756.00,-0.0959
1755.00,-0.0959
1754.00,-0.0958
1753.00,-0.0958
1752.00,-0.0958
1751.00,-0.0958
1750.00,-0.0958
1749.00,-0.0958
1748.00,-0.0958
1747.00,-0.0958
1746.00,-0.0958
1745.00,-0.0958
1744.00,-0.0958
1743.00,-0.0959
1742.00,-0.0959
1741.00,-0.0959
1740.00,-0.0959
1739.00,-0.0959
1738.00,-0.0959
1737.00,-0.0959
1736.00,-0.0959
1735.00,-0.0960
1734.00,-0.0960
1733.00,-0.0960
1732.00,-0.0960
1731.00,-0.0960
1730.00,-0.0960
1729.00,-0.0961
1728.00,-0.0961
1727.00,-0.0961
1726.00,-0.0961
1725.00,-0.0962
1724.00,-0.0962
1723.00,-0.0962
1722.00,-0.0962
1721.00,-0.0962
1720.00,-0.0962
1719.00,-0.0962
1718.00,-0.0962
1717.00,-0.0962
1716.00,-0.0962
1715.00,-0.0962
1714.00,-0.0962
1713.00,-0.0962
1712.00,-0.0961
1711.00,-0.0961
1710.00,-0.0961
1709.00,-0.0961
1708.00,-0.0961
1707.00,-0.0961
1706.00,-0.0961
1705.00,-0.0960
1704.00,-0.0960
1703.00,-0.0960
1702.00,-0.0960
1701.00,-0.0960
1700.00,-0.0959
1699.00,-0.0959
1698.00,-0.0959
1697.00,-0.0959
1696.00,-0.0959
1695.00,-0.0959
1694.00,-0.0959
1693.00,-0.0959
1692.00,-0.0959
1691.00,-0.0958
1690.00,-0.0959
1689.00,-0.0959
1688.00,-0.0959
1687.00,-0.0959
1686.00,-0.0959
1685.00,-0.0959
1684.00,-0.0959
1683.00,-0.0959
1682.00,-0.0959
1681.00,-0.0959
1680.00,-0.0960
1679.00,-0.0960
1678.00,-0.0960
1677.00,-0.0960
1676.00,-0.0960
1675.00,-0.0960
1674.00,-0.0960
1673.00,-0.0960
1672.00,-0.0960
1671.00,-0.0960
1670.00,-0.0960
1669.00,-0.0960
1668.00,-0.0960
1667.00,-0.0960
1666.00,-0.0960
1665.00,-0.0960
1664.00,-0.0960
1663.00,-0.0960
1662.00,-0.0960
1661.00,-0.0960
1660.00,-0.0959
1659.00,-0.0959
1658.00,-0.0959
1657.00,-0.0958
1656.00,-0.0958
1655.00,-0.0958
1654.00,-0.0958
1653.00,-0.0957
1652.00,-0.0957
1651.00,-0.0957
1650.00,-0.0957
1649.00,-0.0956
1648.00,-0.0956
1647.00,-0.0957
1646.00,-0.0957
1645.00,-0.0957
1644.00,-0.0957
1643.00,-0.0957
1642.00,-0.0957
1641.00,-0.0958
1640.00,-0.0958
1639.00,-0.0958
1638.00,-0.0958
1637.00,-0.0958
1636.00,-0.0958
1635.00,-0.0958
1634.00,-0.0958
1633.00,-0.0958
1632.00,-0.0958
1631.00,-0.0959
1630.00,-0.0959
1629.00,-0.0959
1628.00,-0.0959
1627.00,-0.0959
1626.00,-0.0959
1625.00,-0.0959
1624.00,-0.0959
1623.00,-0.0960
1622.00,-0.0960
1621.00,-0.0959
1620.00,-0.0960
1619.00,-0.0960
1618.00,-0.0960
1617.00,-0.0960
1616.00,-0.0960
1615.00,-0.0960
1614.00,-0.0960
1613.00,-0.0960
1612.00,-0.0960
1611.00,-0.0960
1610.00,-0.0960
1609.00,-0.0960
1608.00,-0.0961
1607.00,-0.0961
1606.00,-0.0961
1605.00,-0.0961
1604.00,-0.0961
1603.00,-0.0960
1602.00,-0.0960
1601.00,-0.0960
1600.00,-0.0960
1599.00,-0.0960
1598.00,-0.0959
1597.00,-0.0959
1596.00,-0.0959
1595.00,-0.0959
1594.00,-0.0958
1593.00,-0.0958
1592.00,-0.0958
1591.00,-0.0958
1590.00,-0.0958
1589.00,-0.0958
1588.00,-0.0958
1587.00,-0.0958
1586.00,-0.0958
1585.00,-0.0958
1584.00,-0.0958
1583.00,-0.0959
1582.00,-0.0959
1581.00,-0.0959
1580.00,-0.0959
1579.00,-0.0959
1578.00,-0.0960
1577.00,-0.0960
1576.00,-0.0960
1575.00,-0.0960
1574.00,-0.0960
1573.00,-0.0960
1572.00,-0.0960
1571.00,-0.0961
1570.00,-0.0961
1569.00,-0.0961
1568.00,-0.0961
1567.00,-0.0961
1566.00,-0.0961
1565.00,-0.0961
1564.00,-0.0961
1563.00,-0.0961
1562.00,-0.0961
1561.00,-0.0961
1560.00,-0.0961
1559.00,-0.0960
1558.00,-0.0960
1557.00,-0.0959
1556.00,-0.0959
1555.00,-0.0959
1554.00,-0.0959
1553.00,-0.0959
1552.00,-0.0959
1551.00,-0.0959
1550.00,-0.0959
1549.00,-0.0959
1548.00,-0.0959
1547.00,-0.0959
1546.00,-0.0959
1545.00,-0.0959
1544.00,-0.0959
1543.00,-0.0959
1542.00,-0.0959
1541.00,-0.0959
1540.00,-0.0959
1539.00,-0.0959
1538.00,-0.0959
1537.00,-0.0958
1536.00,-0.0958
1535.00,-0.0957
1534.00,-0.0957
1533.00,-0.0957
1532.00,-0.0957
1531.00,-0.0957
1530.00,-0.0957
1529.00,-0.0957
1528.00,-0.0957
1527.00,-0.0957
1526.00,-0.0957
1525.00,-0.0957
1524.00,-0.0957
1523.00,-0.0957
1522.00,-0.0957
1521.00,-0.0957
1520.00,-0.0957
1519.00,-0.0957
1518.00,-0.0958
1517.00,-0.0958
1516.00,-0.0958
1515.00,-0.0959
1514.00,-0.0959
1513.00,-0.0959
1512.00,-0.0959
1511.00,-0.0959
1510.00,-0.0959
1509.00,-0.0960
1508.00,-0.0960
1507.00,-0.0960
1506.00,-0.0960
1505.00,-0.0960
1504.00,-0.0960
1503.00,-0.0960
1502.00,-0.0960
1501.00,-0.0960
1500.00,-0.0960
1499.00,-0.0959
1498.00,-0.0959
1497.00,-0.0959
1496.00,-0.0959
1495.00,-0.0958
1494.00,-0.0958
1493.00,-0.0958
1492.00,-0.0958
1491.00,-0.0958
1490.00,-0.0958
1489.00,-0.0958
1488.00,-0.0958
1487.00,-0.0958
1486.00,-0.0958
1485.00,-0.0959
1484.00,-0.0959
1483.00,-0.0959
1482.00,-0.0959
1481.00,-0.0959
1480.00,-0.0959
1479.00,-0.0959
1478.00,-0.0959
1477.00,-0.0959
1476.00,-0.0959
1475.00,-0.0960
1474.00,-0.0960
1473.00,-0.0960
1472.00,-0.0960
1471.00,-0.0961
1470.00,-0.0961
1469.00,-0.0961
1468.00,-0.0961
1467.00,-0.0962
1466.00,-0.0962
1465.00,-0.0962
1464.00,-0.0962
1463.00,-0.0962
1462.00,-0.0962
1461.00,-0.0962
1460.00,-0.0962
1459.00,-0.0962
1458.00,-0.0962
1457.00,-0.0962
1456.00,-0.0962
1455.00,-0.0962
1454.00,-0.0962
1453.00,-0.0962
1452.00,-0.0962
1451.00,-0.0962
1450.00,-0.0962
1449.00,-0.0962
1448.00,-0.0962
1447.00,-0.0961
1446.00,-0.0961
1445.00,-0.0961
1444.00,-0.0961
1443.00,-0.0960
1442.00,-0.0960
1441.00,-0.0960
1440.00,-0.0960
1439.00,-0.0959
1438.00,-0.0959
1437.00,-0.0959
1436.00,-0.0958
1435.00,-0.0958
1434.00,-0.0958
1433.00,-0.0958
1432.00,-0.0958
1431.00,-0.0958
1430.00,-0.0958
1429.00,-0.0958
1428.00,-0.0958
1427.00,-0.0958
1426.00,-0.0958
1425.00,-0.0959
1424.00,-0.0959
1423.00,-0.0959
1422.00,-0.0959
1421.00,-0.0959
1420.00,-0.0959
1419.00,-0.0959
1418.00,-0.0959
1417.00,-0.0960
1416.00,-0.0960
1415.00,-0.0960
1414.00,-0.0961
1413.00,-0.0961
1412.00,-0.0961
1411.00,-0.0961
1410.00,-0.0961
1409.00,-0.0961
1408.00,-0.0961
1407.00,-0.0961
1406.00,-0.0961
1405.00,-0.0961
1404.00,-0.0961
1403.00,-0.0961
1402.00,-0.0961
1401.00,-0.0961
1400.00,-0.0961
1399.00,-0.0961
1398.00,-0.0961
1397.00,-0.0961
1396.00,-0.0961
1395.00,-0.0961
1394.00,-0.0961
1393.00,-0.0961
1392.00,-0.0961
1391.00,-0.0961
1390.00,-0.0961
1389.00,-0.0961
1388.00,-0.0961
1387.00,-0.0961
1386.00,-0.0961
1385.00,-0.0961
1384.00,-0.0960
1383.00,-0.0960
1382.00,-0.0960
1381.00,-0.0960
1380.00,-0.0960
1379.00,-0.0960
1378.00,-0.0960
1377.00,-0.0959
1376.00,-0.0959
1375.00,-0.0959
1374.00,-0.0959
1373.00,-0.0959
1372.00,-0.0960
1371.00,-0.0960
1370.00,-0.0960
1369.00,-0.0960
1368.00,-0.0960
1367.00,-0.0960
1366.00,-0.0960
1365.00,-0.0960
1364.00,-0.0960
1363.00,-0.0960
1362.00,-0.0960
1361.00,-0.0961
1360.00,-0.0961
1359.00,-0.0961
1358.00,-0.0961
1357.00,-0.0961
1356.00,-0.0961
1355.00,-0.0961
1354.00,-0.0961
1353.00,-0.0961
1352.00,-0.0962
1351.00,-0.0962
1350.00,-0.0962
1349.00,-0.0962
1348.00,-0.0962
1347.00,-0.0962
1346.00,-0.0961
1345.00,-0.0961
1344.00,-0.0961
1343.00,-0.0961
1342.00,-0.0961
1341.00,-0.0961
1340.00,-0.0961
1339.00,-0.0961
1338.00,-0.0961
1337.00,-0.0961
1336.00,-0.0961
1335.00,-0.0960
1334.00,-0.0960
1333.00,-0.0960
1332.00,-0.0960
1331.00,-0.0960
1330.00,-0.0960
1329.00,-0.0960
1328.00,-0.0960
1327.00,-0.0960
1326.00,-0.0960
1325.00,-0.0960
1324.00,-0.0960
1323.00,-0.0960
1322.00,-0.0960
1321.00,-0.0960
1320.00,-0.0960
1319.00,-0.0960
1318.00,-0.0960
1317.00,-0.0960
1316.00,-0.0960
1315.00,-0.0960
1314.00,-0.0960
1313.00,-0.0960
1312.00,-0.0961
1311.00,-0.0961
1310.00,-0.0961
1309.00,-0.0961
1308.00,-0.0961
1307.00,-0.0961
1306.00,-0.0962
1305.00,-0.0962
1304.00,-0.0962
1303.00,-0.0962
1302.00,-0.0962
1301.00,-0.0962
1300.00,-0.0962
1299.00,-0.0962
1298.00,-0.0962
1297.00,-0.0962
1296.00,-0.0962
1295.00,-0.0962
1294.00,-0.0961
1293.00,-0.0961
1292.00,-0.0961
1291.00,-0.0961
1290.00,-0.0961
1289.00,-0.0961
1288.00,-0.0960
1287.00,-0.0960
1286.00,-0.0960
1285.00,-0.0960
1284.00,-0.0959
1283.00,-0.0959
1282.00,-0.0959
1281.00,-0.0959
1280.00,-0.0959
1279.00,-0.0958
1278.00,-0.0958
1277.00,-0.0958
1276.00,-0.0958
1275.00,-0.0958
1274.00,-0.0958
1273.00,-0.0958
1272.00,-0.0958
1271.00,-0.0958
1270.00,-0.0958
1269.00,-0.0958
1268.00,-0.0958
1267.00,-0.0958
1266.00,-0.0958
1265.00,-0.0958
1264.00,-0.0958
1263.00,-0.0958
1262.00,-0.0958
1261.00,-0.0958
1260.00,-0.0959
1259.00,-0.0959
1258.00,-0.0959
1257.00,-0.0959
1256.00,-0.0959
1255.00,-0.0960
1254.00,-0.0960
1253.00,-0.0960
1252.00,-0.0960
1251.00,-0.0960
1250.00,-0.0960
1249.00,-0.0960
1248.00,-0.0960
1247.00,-0.0961
1246.00,-0.0961
1245.00,-0.0961
1244.00,-0.0961
1243.00,-0.0961
1242.00,-0.0960
1241.00,-0.0960
1240.00,-0.0960
1239.00,-0.0960
1238.00,-0.0960
1237.00,-0.0960
1236.00,-0.0960
1235.00,-0.0960
1234.00,-0.0959
1233.00,-0.0959
1232.00,-0.0959
1231.00,-0.0959
1230.00,-0.0958
1229.00,-0.0958
1228.00,-0.0958
1227.00,-0.0958
1226.00,-0.0957
1225.00,-0.0957
1224.00,-0.0957
1223.00,-0.0957
1222.00,-0.0957
1221.00,-0.0956
1220.00,-0.0956
1219.00,-0.0956
1218.00,-0.0956
1217.00,-0.0956
1216.00,-0.0956
1215.00,-0.0955
1214.00,-0.0955
1213.00,-0.0955
1212.00,-0.0956
1211.00,-0.0956
1210.00,-0.0956
1209.00,-0.0956
1208.00,-0.0956
1207.00,-0.0956
1206.00,-0.0956
1205.00,-0.0956
1204.00,-0.0956
1203.00,-0.0956
1202.00,-0.0957
1201.00,-0.0957
1200.00,-0.0957
1199.00,-0.0957
1198.00,-0.0957
1197.00,-0.0957
1196.00,-0.0957
1195.00,-0.0957
1194.00,-0.0957
1193.00,-0.0957
1192.00,-0.0957
1191.00,-0.0957
1190.00,-0.0957
1189.00,-0.0957
1188.00,-0.0957
1187.00,-0.0957
1186.00,-0.0957
1185.00,-0.0957
1184.00,-0.0957
1183.00,-0.0957
1182.00,-0.0957
1181.00,-0.0956
1180.00,-0.0956
1179.00,-0.0956
1178.00,-0.0956
1177.00,-0.0955
1176.00,-0.0955
1175.00,-0.0955
1174.00,-0.0955
1173.00,-0.0955
1172.00,-0.0954
1171.00,-0.0954
1170.00,-0.0954
1169.00,-0.0954
1168.00,-0.0954
1167.00,-0.0954
1166.00,-0.0954
1165.00,-0.0954
1164.00,-0.0954
1163.00,-0.0954
1162.00,-0.0953
1161.00,-0.0953
1160.00,-0.0953
1159.00,-0.0953
1158.00,-0.0953
1157.00,-0.0953
1156.00,-0.0954
1155.00,-0.0954
1154.00,-0.0954
1153.00,-0.0954
1152.00,-0.0954
1151.00,-0.0954
1150.00,-0.0954
1149.00,-0.0954
1148.00,-0.0954
1147.00,-0.0954
1146.00,-0.0954
1145.00,-0.0954
1144.00,-0.0955
1143.00,-0.0955
1142.00,-0.0955
1141.00,-0.0955
1140.00,-0.0955
1139.00,-0.0955
1138.00,-0.0955
1137.00,-0.0955
1136.00,-0.0955
1135.00,-0.0955
1134.00,-0.0955
1133.00,-0.0955
1132.00,-0.0955
1131.00,-0.0955
1130.00,-0.0954
1129.00,-0.0954
1128.00,-0.0954
1127.00,-0.0954
1126.00,-0.0954
1125.00,-0.0954
1124.00,-0.0954
1123.00,-0.0954
1122.00,-0.0954
1121.00,-0.0954
1120.00,-0.0954
1119.00,-0.0953
1118.00,-0.0953
1117.00,-0.0953
1116.00,-0.0953
1115.00,-0.0953
1114.00,-0.0953
1113.00,-0.0953
1112.00,-0.0953
1111.00,-0.0953
1110.00,-0.0953
1109.00,-0.0952
1108.00,-0.0952
1107.00,-0.0952
1106.00,-0.0952
1105.00,-0.0952
1104.00,-0.0952
1103.00,-0.0952
1102.00,-0.0953
1101.00,-0.0953
1100.00,-0.0953
1099.00,-0.0953
1098.00,-0.0953
1097.00,-0.0953
1096.00,-0.0953
1095.00,-0.0953
1094.00,-0.0953
1093.00,-0.0953
1092.00,-0.0953
1091.00,-0.0954
1090.00,-0.0954
1089.00,-0.0954
1088.00,-0.0954
1087.00,-0.0953
1086.00,-0.0953
1085.00,-0.0953
1084.00,-0.0954
1083.00,-0.0954
1082.00,-0.0953
1081.00,-0.0953
1080.00,-0.0953
1079.00,-0.0953
1078.00,-0.0953
1077.00,-0.0952
1076.00,-0.0952
1075.00,-0.0952
1074.00,-0.0952
1073.00,-0.0952
1072.00,-0.0952
1071.00,-0.0951
1070.00,-0.0951
1069.00,-0.0951
1068.00,-0.0950
1067.00,-0.0950
1066.00,-0.0950
1065.00,-0.0950
1064.00,-0.0950
1063.00,-0.0950
1062.00,-0.0950
1061.00,-0.0950
1060.00,-0.0950
1059.00,-0.0950
1058.00,-0.0950
1057.00,-0.0950
1056.00,-0.0950
1055.00,-0.0950
1054.00,-0.0950
1053.00,-0.0950
1052.00,-0.0950
1051.00,-0.0950
1050.00,-0.0950
1049.00,-0.0950
1048.00,-0.0951
1047.00,-0.0951
1046.00,-0.0951
1045.00,-0.0952
1044.00,-0.0952
1043.00,-0.0952
1042.00,-0.0952
1041.00,-0.0953
1040.00,-0.0953
1039.00,-0.0953
1038.00,-0.0953
1037.00,-0.0954
1036.00,-0.0954
1035.00,-0.0954
1034.00,-0.0954
1033.00,-0.0955
1032.00,-0.0955
1031.00,-0.0955
1030.00,-0.0955
1029.00,-0.0956
1028.00,-0.0956
1027.00,-0.0956
1026.00,-0.0956
1025.00,-0.0956
1024.00,-0.0956
1023.00,-0.0956
1022.00,-0.0956
1021.00,-0.0957
1020.00,-0.0957
1019.00,-0.0957
1018.00,-0.0957
1017.00,-0.0957
1016.00,-0.0957
1015.00,-0.0957
1014.00,-0.0957
1013.00,-0.0957
1012.00,-0.0957
1011.00,-0.0958
1010.00,-0.0958
1009.00,-0.0958
1008.00,-0.0958
1007.00,-0.0958
1006.00,-0.0958
1005.00,-0.0958
1004.00,-0.0958
1003.00,-0.0958
1002.00,-0.0958
1001.00,-0.0959
1000.00,-0.0959
999.00,-0.0959
998.00,-0.0959
997.00,-0.0959
996.00,-0.0960
995.00,-0.0960
994.00,-0.0960
993.00,-0.0961
992.00,-0.0961
991.00,-0.0961
990.00,-0.0962
989.00,-0.0962
988.00,-0.0962
987.00,-0.0963
986.00,-0.0963
985.00,-0.0963
984.00,-0.0963
983.00,-0.0964
982.00,-0.0964
981.00,-0.0964
980.00,-0.0964
979.00,-0.0964
978.00,-0.0964
977.00,-0.0964
976.00,-0.0965
975.00,-0.0965
974.00,-0.0965
973.00,-0.0965
972.00,-0.0965
971.00,-0.0965
970.00,-0.0965
969.00,-0.0965
968.00,-0.0965
967.00,-0.0965
966.00,-0.0965
965.00,-0.0965
964.00,-0.0965
963.00,-0.0965
962.00,-0.0965
961.00,-0.0965
960.00,-0.0965
959.00,-0.0965
958.00,-0.0965
957.00,-0.0965
956.00,-0.0965
955.00,-0.0965
954.00,-0.0965
953.00,-0.0965
952.00,-0.0966
951.00,-0.0966
950.00,-0.0966
949.00,-0.0966
948.00,-0.0966
947.00,-0.0966
946.00,-0.0967
945.00,-0.0967
944.00,-0.0967
943.00,-0.0967
942.00,-0.0967
941.00,-0.0968
940.00,-0.0968
939.00,-0.0968
938.00,-0.0968
937.00,-0.0968
936.00,-0.0968
935.00,-0.0969
934.00,-0.0969
933.00,-0.0969
932.00,-0.0969
931.00,-0.0970
930.00,-0.0970
929.00,-0.0970
928.00,-0.0970
927.00,-0.0970
926.00,-0.0970
925.00,-0.0970
924.00,-0.0970
923.00,-0.0970
922.00,-0.0970
921.00,-0.0970
920.00,-0.0970
919.00,-0.0970
918.00,-0.0970
917.00,-0.0970
916.00,-0.0970
915.00,-0.0970
914.00,-0.0970
913.00,-0.0970
912.00,-0.0969
911.00,-0.0969
910.00,-0.0969
909.00,-0.0969
908.00,-0.0969
907.00,-0.0969
906.00,-0.0969
905.00,-0.0969
904.00,-0.0969
903.00,-0.0969
902.00,-0.0969
901.00,-0.0969
900.00,-0.0969
899.00,-0.0969
898.00,-0.0969
897.00,-0.0969
896.00,-0.0969
895.00,-0.0969
894.00,-0.0969
893.00,-0.0970
892.00,-0.0970
891.00,-0.0970
890.00,-0.0970
889.00,-0.0970
888.00,-0.0970
887.00,-0.0970
886.00,-0.0971
885.00,-0.0971
884.00,-0.0971
883.00,-0.0970
882.00,-0.0970
881.00,-0.0971
880.00,-0.0971
879.00,-0.0971
878.00,-0.0971
877.00,-0.0971
876.00,-0.0971
875.00,-0.0971
874.00,-0.0971
873.00,-0.0971
872.00,-0.0971
871.00,-0.0971
870.00,-0.0971
869.00,-0.0971
868.00,-0.0971
867.00,-0.0971
866.00,-0.0971
865.00,-0.0971
864.00,-0.0971
863.00,-0.0971
862.00,-0.0971
861.00,-0.0971
860.00,-0.0971
859.00,-0.0971
858.00,-0.0971
857.00,-0.0970
856.00,-0.0970
855.00,-0.0970
854.00,-0.0970
853.00,-0.0970
852.00,-0.0970
851.00,-0.0970
850.00,-0.0970
849.00,-0.0970
848.00,-0.0970
847.00,-0.0970
846.00,-0.0970
845.00,-0.0970
844.00,-0.0970
843.00,-0.0970
842.00,-0.0970
841.00,-0.0970
840.00,-0.0970
839.00,-0.0970
838.00,-0.0970
837.00,-0.0970
836.00,-0.0970
835.00,-0.0970
834.00,-0.0970
833.00,-0.0970
832.00,-0.0970
831.00,-0.0970
830.00,-0.0970
829.00,-0.0970
828.00,-0.0970
827.00,-0.0970
826.00,-0.0970
825.00,-0.0970
824.00,-0.0970
823.00,-0.0970
822.00,-0.0970
821.00,-0.0970
820.00,-0.0970
819.00,-0.0970
818.00,-0.0971
817.00,-0.0971
816.00,-0.0971
815.00,-0.0971
814.00,-0.0970
813.00,-0.0970
812.00,-0.0971
811.00,-0.0971
810.00,-0.0971
809.00,-0.0971
808.00,-0.0970
807.00,-0.0970
806.00,-0.0970
805.00,-0.0971
804.00,-0.0971
803.00,-0.0971
802.00,-0.0971
801.00,-0.0971
800.00,-0.0970
799.00,-0.0970
798.00,-0.0970
797.00,-0.0970
796.00,-0.0970
795.00,-0.0970
794.00,-0.0970
793.00,-0.0970
792.00,-0.0971
791.00,-0.0971
790.00,-0.0971
789.00,-0.0971
788.00,-0.0970
787.00,-0.0970
786.00,-0.0970
785.00,-0.0970
784.00,-0.0970
783.00,-0.0971
782.00,-0.0971
781.00,-0.0971
780.00,-0.0971
779.00,-0.0971
778.00,-0.0971
777.00,-0.0971
776.00,-0.0971
775.00,-0.0971
774.00,-0.0971
773.00,-0.0971
772.00,-0.0971
771.00,-0.0971
770.00,-0.0971
769.00,-0.0971
768.00,-0.0971
767.00,-0.0971
766.00,-0.0971
765.00,-0.0971
764.00,-0.0971
763.00,-0.0971
762.00,-0.0971
761.00,-0.0970
760.00,-0.0970
759.00,-0.0970
758.00,-0.0970
757.00,-0.0970
756.00,-0.0970
755.00,-0.0969
754.00,-0.0969
753.00,-0.0969
752.00,-0.0969
751.00,-0.0969
750.00,-0.0969
749.00,-0.0969
748.00,-0.0968
747.00,-0.0968
746.00,-0.0968
745.00,-0.0969
744.00,-0.0969
743.00,-0.0969
742.00,-0.0968
741.00,-0.0968
740.00,-0.0968
739.00,-0.0968
738.00,-0.0968
737.00,-0.0968
736.00,-0.0968
735.00,-0.0968
734.00,-0.0968
733.00,-0.0968
732.00,-0.0969
731.00,-0.0969
730.00,-0.0969
729.00,-0.0969
728.00,-0.0969
727.00,-0.0968
726.00,-0.0968
725.00,-0.0969
724.00,-0.0969
723.00,-0.0969
722.00,-0.0969
721.00,-0.0969
720.00,-0.0969
719.00,-0.0969
718.00,-0.0969
717.00,-0.0969
716.00,-0.0969
715.00,-0.0969
714.00,-0.0969
713.00,-0.0969
712.00,-0.0969
711.00,-0.0969
710.00,-0.0969
709.00,-0.0969
708.00,-0.0969
707.00,-0.0968
706.00,-0.0968
705.00,-0.0968
704.00,-0.0968
703.00,-0.0968
702.00,-0.0968
701.00,-0.0968
700.00,-0.0967
699.00,-0.0967
698.00,-0.0967
697.00,-0.0967
696.00,-0.0966
695.00,-0.0966
694.00,-0.0966
693.00,-0.0966
692.00,-0.0965
691.00,-0.0965
690.00,-0.0965
689.00,-0.0965
688.00,-0.0964
687.00,-0.0964
686.00,-0.0965
685.00,-0.0965
684.00,-0.0965
683.00,-0.0965
682.00,-0.0965
681.00,-0.0964
680.00,-0.0964
679.00,-0.0964
678.00,-0.0964
677.00,-0.0965
676.00,-0.0965
675.00,-0.0965
674.00,-0.0965
673.00,-0.0965
672.00,-0.0964
671.00,-0.0963
670.00,-0.0960
669.00,-0.0955
668.00,-0.0950
667.00,-0.0950
666.00,-0.0954
665.00,-0.0958
664.00,-0.0962
663.00,-0.0964
662.00,-0.0964
661.00,-0.0964
660.00,-0.0964
659.00,-0.0963
658.00,-0.0963
657.00,-0.0963
656.00,-0.0963
655.00,-0.0963
654.00,-0.0962
653.00,-0.0962
652.00,-0.0962
651.00,-0.0962
650.00,-0.0961
649.00,-0.0961
648.00,-0.0962
647.00,-0.0962
646.00,-0.0962
645.00,-0.0962
644.00,-0.0962
643.00,-0.0962
642.00,-0.0961
641.00,-0.0961
640.00,-0.0961
639.00,-0.0960
638.00,-0.0960
637.00,-0.0960
636.00,-0.0960
635.00,-0.0960
634.00,-0.0960
633.00,-0.0960
632.00,-0.0960
631.00,-0.0960
630.00,-0.0960
629.00,-0.0960
628.00,-0.0960
627.00,-0.0960
626.00,-0.0960
625.00,-0.0959
624.00,-0.0960
623.00,-0.0960
622.00,-0.0960
621.00,-0.0960
620.00,-0.0960
619.00,-0.0960
618.00,-0.0960
617.00,-0.0960
616.00,-0.0960
615.00,-0.0960
614.00,-0.0960
613.00,-0.0960
612.00,-0.0960
611.00,-0.0960
610.00,-0.0960
609.00,-0.0960
608.00,-0.0960
607.00,-0.0960
606.00,-0.0960
605.00,-0.0960
604.00,-0.0960
603.00,-0.0960
602.00,-0.0960
601.00,-0.0960
600.00,-0.0960
599.00,-0.0959
598.00,-0.0959
597.00,-0.0959
596.00,-0.0960
595.00,-0.0960
594.00,-0.0959
593.00,-0.0959
592.00,-0.0958
591.00,-0.0958
590.00,-0.0958
589.00,-0.0958
588.00,-0.0958
587.00,-0.0958
586.00,-0.0957
585.00,-0.0957
584.00,-0.0957
583.00,-0.0957
582.00,-0.0958
581.00,-0.0958
580.00,-0.0958
579.00,-0.0958
578.00,-0.0957
577.00,-0.0957
576.00,-0.0957
575.00,-0.0957
574.00,-0.0958
573.00,-0.0958
572.00,-0.0958
571.00,-0.0957
570.00,-0.0957
569.00,-0.0956
568.00,-0.0956
567.00,-0.0957
566.00,-0.0957
565.00,-0.0957
564.00,-0.0957
563.00,-0.0957
562.00,-0.0957
561.00,-0.0957
560.00,-0.0957
559.00,-0.0957
558.00,-0.0957
557.00,-0.0956
556.00,-0.0957
555.00,-0.0957
554.00,-0.0957
553.00,-0.0958
552.00,-0.0958
551.00,-0.0958
550.00,-0.0957
549.00,-0.0958
548.00,-0.0958
547.00,-0.0958
546.00,-0.0958
545.00,-0.0958
544.00,-0.0958
543.00,-0.0959
542.00,-0.0959
541.00,-0.0960
540.00,-0.0960
539.00,-0.0960
538.00,-0.0959
537.00,-0.0960
536.00,-0.0960
535.00,-0.0961
534.00,-0.0961
533.00,-0.0962
532.00,-0.0962
531.00,-0.0963
530.00,-0.0963
529.00,-0.0963
528.00,-0.0963
527.00,-0.0963
526.00,-0.0962
525.00,-0.0963
524.00,-0.0965
523.00,-0.0966
522.00,-0.0968
521.00,-0.0968
520.00,-0.0968
519.00,-0.0968
518.00,-0.0968
517.00,-0.0968
516.00,-0.0968
515.00,-0.0968
514.00,-0.0968
513.00,-0.0968
512.00,-0.0968
511.00,-0.0969
510.00,-0.0970
509.00,-0.0971
508.00,-0.0971
507.00,-0.0971
506.00,-0.0970
505.00,-0.0970
504.00,-0.0971
503.00,-0.0972
502.00,-0.0972
501.00,-0.0971
500.00,-0.0971
