Created as New Dataset,Sample 028 By Analyst Date Thursday, March 27 2025
cm-1,A
4000.00,-0.0969
3999.00,-0.0969
3998.00,-0.0969
3997.00,-0.0969
3996.00,-0.0969
3995.00,-0.0969
3994.00,-0.0969
3993.00,-0.0969
3992.00,-0.0968
3991.00,-0.0968
3990.00,-0.0968
3989.00,-0.0968
3988.00,-0.0968
3987.00,-0.0967
3986.00,-0.0967
3985.00,-0.0967
3984.00,-0.0967
3983.00,-0.0967
3982.00,-0.0966
3981.00,-0.0966
3980.00,-0.0966
3979.00,-0.0966
3978.00,-0.0966
3977.00,-0.0965
3976.00,-0.0965
3975.00,-0.0965
3974.00,-0.0965
3973.00,-0.0965
3972.00,-0.0965
3971.00,-0.0965
3970.00,-0.0965
3969.00,-0.0964
3968.00,-0.0964
3967.00,-0.0964
3966.00,-0.0964
3965.00,-0.0964
3964.00,-0.0964
3963.00,-0.0964
3962.00,-0.0964
3961.00,-0.0964
3960.00,-0.0964
3959.00,-0.0964
3958.00,-0.0964
3957.00,-0.0964
3956.00,-0.0964
3955.00,-0.0964
3954.00,-0.0965
3953.00,-0.0965
3952.00,-0.0965
3951.00,-0.0965
3950.00,-0.0965
3949.00,-0.0965
3948.00,-0.0965
3947.00,-0.0965
3946.00,-0.0965
3945.00,-0.0965
3944.00,-0.0965
3943.00,-0.0965
3942.00,-0.0964
3941.00,-0.0964
3940.00,-0.0965
3939.00,-0.0965
3938.00,-0.0964
3937.00,-0.0964
3936.00,-0.0964
3935.00,-0.0964
3934.00,-0.0964
3933.00,-0.0964
3932.00,-0.0963
3931.00,-0.0963
3930.00,-0.0963
3929.00,-0.0963
3928.00,-0.0963
3927.00,-0.0963
3926.00,-0.0963
3925.00,-0.0962
3924.00,-0.0962
3923.00,-0.0962
3922.00,-0.0962
3921.00,-0.0962
3920.00,-0.0962
3919.00,-0.0961
3918.00,-0.0961
3917.00,-0.0960
3916.00,-0.0960
3915.00,-0.0960
3914.00,-0.0960
3913.00,-0.0960
3912.00,-0.0960
3911.00,-0.0960
3910.00,-0.0960
3909.00,-0.0960
3908.00,-0.0961
3907.00,-0.0961
3906.00,-0.0961
3905.00,-0.0961
3904.00,-0.0961
3903.00,-0.0961
3902.00,-0.0961
3901.00,-0.0961
3900.00,-0.0960
3899.00,-0.0960
3898.00,-0.0960
3897.00,-0.0961
3896.00,-0.0962
3895.00,-0.0962
3894.00,-0.0962
3893.00,-0.0962
3892.00,-0.0960
3891.00,-0.0960
3890.00,-0.0960
3889.00,-0.0962
3888.00,-0.0963
3887.00,-0.0962
3886.00,-0.0961
3885.00,-0.0960
3884.00,-0.0961
3883.00,-0.0962
3882.00,-0.0962
3881.00,-0.0961
3880.00,-0.0960
3879.00,-0.0960
3878.00,-0.0961
3877.00,-0.0962
3876.00,-0.0961
3875.00,-0.0960
3874.00,-0.0960
3873.00,-0.0961
3872.00,-0.0961
3871.00,-0.0961
3870.00,-0.0959
3869.00,-0.0959
3868.00,-0.0960
3867.00,-0.0961
3866.00,-0.0961
3865.00,-0.0959
3864.00,-0.0959
3863.00,-0.0959
3862.00,-0.0959
3861.00,-0.0959
3860.00,-0.0959
3859.00,-0.0959
3858.00,-0.0960
3857.00,-0.0961
3856.00,-0.0962
3855.00,-0.0962
3854.00,-0.0959
3853.00,-0.0956
3852.00,-0.0957
3851.00,-0.0961
3850.00,-0.0964
3849.00,-0.0963
3848.00,-0.0961
3847.00,-0.0960
3846.00,-0.0959
3845.00,-0.0959
3844.00,-0.0959
3843.00,-0.0959
3842.00,-0.0960
3841.00,-0.0960
3840.00,-0.0961
3839.00,-0.0960
3838.00,-0.0959
3837.00,-0.0959
3836.00,-0.0959
3835.00,-0.0960
3834.00,-0.0960
3833.00,-0.0959
3832.00,-0.0958
3831.00,-0.0958
3830.00,-0.0958
3829.00,-0.0958
3828.00,-0.0957
3827.00,-0.0957
3826.00,-0.0956
3825.00,-0.0957
3824.00,-0.0958
3823.00,-0.0958
3822.00,-0.0956
3821.00,-0.0954
3820.00,-0.0954
3819.00,-0.0956
3818.00,-0.0957
3817.00,-0.0956
3816.00,-0.0954
3815.00,-0.0953
3814.00,-0.0954
3813.00,-0.0955
3812.00,-0.0955
3811.00,-0.0954
3810.00,-0.0954
3809.00,-0.0954
3808.00,-0.0953
3807.00,-0.0952
3806.00,-0.0952
3805.00,-0.0954
3804.00,-0.0955
3803.00,-0.0955
3802.00,-0.0953
3801.00,-0.0952
3800.00,-0.0953
3799.00,-0.0955
3798.00,-0.0955
3797.00,-0.0954
3796.00,-0.0953
3795.00,-0.0953
3794.00,-0.0953
3793.00,-0.0953
3792.00,-0.0953
3791.00,-0.0953
3790.00,-0.0953
3789.00,-0.0953
3788.00,-0.0953
3787.00,-0.0953
3786.00,-0.0953
3785.00,-0.0953
3784.00,-0.0953
3783.00,-0.0953
3782.00,-0.0954
3781.00,-0.0953
3780.00,-0.0953
3779.00,-0.0952
3778.00,-0.0953
3777.00,-0.0953
3776.00,-0.0953
3775.00,-0.0953
3774.00,-0.0953
3773.00,-0.0954
3772.00,-0.0953
3771.00,-0.0953
3770.00,-0.0952
3769.00,-0.0952
3768.00,-0.0953
3767.00,-0.0953
3766.00,-0.0953
3765.00,-0.0952
3764.00,-0.0953
3763.00,-0.0953
3762.00,-0.0953
3761.00,-0.0953
3760.00,-0.0952
3759.00,-0.0952
3758.00,-0.0952
3757.00,-0.0953
3756.00,-0.0953
3755.00,-0.0954
3754.00,-0.0954
3753.00,-0.0954
3752.00,-0.0953
3751.00,-0.0952
3750.00,-0.0951
3749.00,-0.0952
3748.00,-0.0954
3747.00,-0.0955
3746.00,-0.0953
3745.00,-0.0950
3744.00,-0.0948
3743.00,-0.0949
3742.00,-0.0952
3741.00,-0.0953
3740.00,-0.0952
3739.00,-0.0951
3738.00,-0.0951
3737.00,-0.0950
3736.00,-0.0949
3735.00,-0.0948
3734.00,-0.0948
3733.00,-0.0948
3732.00,-0.0948
3731.00,-0.0948
3730.00,-0.0948
3729.00,-0.0948
3728.00,-0.0948
3727.00,-0.0947
3726.00,-0.0946
3725.00,-0.0946
3724.00,-0.0946
3723.00,-0.0946
3722.00,-0.0946
3721.00,-0.0946
3720.00,-0.0946
3719.00,-0.0946
3718.00,-0.0946
3717.00,-0.0946
3716.00,-0.0947
3715.00,-0.0947
3714.00,-0.0947
3713.00,-0.0947
3712.00,-0.0946
3711.00,-0.0946
3710.00,-0.0947
3709.00,-0.0947
3708.00,-0.0948
3707.00,-0.0948
3706.00,-0.0948
3705.00,-0.0949
3704.00,-0.0949
3703.00,-0.0949
3702.00,-0.0949
3701.00,-0.0949
3700.00,-0.0950
3699.00,-0.0952
3698.00,-0.0953
3697.00,-0.0953
3696.00,-0.0954
3695.00,-0.0955
3694.00,-0.0956
3693.00,-0.0958
3692.00,-0.0959
3691.00,-0.0959
3690.00,-0.0960
3689.00,-0.0959
3688.00,-0.0960
3687.00,-0.0962
3686.00,-0.0964
3685.00,-0.0964
3684.00,-0.0964
3683.00,-0.0964
3682.00,-0.0964
3681.00,-0.0964
3680.00,-0.0965
3679.00,-0.0966
3678.00,-0.0968
3677.00,-0.0968
3676.00,-0.0966
3675.00,-0.0965
3674.00,-0.0966
3673.00,-0.0968
3672.00,-0.0968
3671.00,-0.0967
3670.00,-0.0964
3669.00,-0.0963
3668.00,-0.0964
3667.00,-0.0965
3666.00,-0.0965
3665.00,-0.0964
3664.00,-0.0963
3663.00,-0.0963
3662.00,-0.0962
3661.00,-0.0962
3660.00,-0.0962
3659.00,-0.0962
3658.00,-0.0962
3657.00,-0.0961
3656.00,-0.0960
3655.00,-0.0960
3654.00,-0.0961
3653.00,-0.0962
3652.00,-0.0962
3651.00,-0.0961
3650.00,-0.0960
3649.00,-0.0959
3648.00,-0.0959
3647.00,-0.0959
3646.00,-0.0960
3645.00,-0.0960
3644.00,-0.0959
3643.00,-0.0958
3642.00,-0.0957
3641.00,-0.0957
3640.00,-0.0957
3639.00,-0.0956
3638.00,-0.0956
3637.00,-0.0957
3636.00,-0.0957
3635.00,-0.0957
3634.00,-0.0957
3633.00,-0.0957
3632.00,-0.0958
3631.00,-0.0959
3630.00,-0.0958
3629.00,-0.0956
3628.00,-0.0955
3627.00,-0.0957
3626.00,-0.0959
3625.00,-0.0959
3624.00,-0.0958
3623.00,-0.0958
3622.00,-0.0958
3621.00,-0.0958
3620.00,-0.0957
3619.00,-0.0957
3618.00,-0.0957
3617.00,-0.0958
3616.00,-0.0959
3615.00,-0.0959
3614.00,-0.0959
3613.00,-0.0958
3612.00,-0.0958
3611.00,-0.0959
3610.00,-0.0958
3609.00,-0.0958
3608.00,-0.0957
3607.00,-0.0957
3606.00,-0.0957
3605.00,-0.0957
3604.00,-0.0957
3603.00,-0.0957
3602.00,-0.0957
3601.00,-0.0957
3600.00,-0.0957
3599.00,-0.0957
3598.00,-0.0958
3597.00,-0.0958
3596.00,-0.0958
3595.00,-0.0958
3594.00,-0.0958
3593.00,-0.0958
3592.00,-0.0959
3591.00,-0.0959
3590.00,-0.0959
3589.00,-0.0959
3588.00,-0.0958
3587.00,-0.0958
3586.00,-0.0959
3585.00,-0.0959
3584.00,-0.0960
3583.00,-0.0960
3582.00,-0.0960
3581.00,-0.0960
3580.00,-0.0960
3579.00,-0.0960
3578.00,-0.0961
3577.00,-0.0961
3576.00,-0.0961
3575.00,-0.0961
3574.00,-0.0962
3573.00,-0.0962
3572.00,-0.0962
3571.00,-0.0963
3570.00,-0.0963
3569.00,-0.0964
3568.00,-0.0964
3567.00,-0.0963
3566.00,-0.0963
3565.00,-0.0964
3564.00,-0.0964
3563.00,-0.0964
3562.00,-0.0964
3561.00,-0.0963
3560.00,-0.0963
3559.00,-0.0963
3558.00,-0.0963
3557.00,-0.0963
3556.00,-0.0963
3555.00,-0.0963
3554.00,-0.0963
3553.00,-0.0963
3552.00,-0.0963
3551.00,-0.0963
3550.00,-0.0963
3549.00,-0.0963
3548.00,-0.0963
3547.00,-0.0963
3546.00,-0.0963
3545.00,-0.0962
3544.00,-0.0962
3543.00,-0.0962
3542.00,-0.0962
3541.00,-0.0962
3540.00,-0.0962
3539.00,-0.0962
3538.00,-0.0962
3537.00,-0.0962
3536.00,-0.0962
3535.00,-0.0962
3534.00,-0.0963
3533.00,-0.0963
3532.00,-0.0963
3531.00,-0.0963
3530.00,-0.0963
3529.00,-0.0963
3528.00,-0.0963
3527.00,-0.0963
3526.00,-0.0963
3525.00,-0.0963
3524.00,-0.0963
3523.00,-0.0963
3522.00,-0.0963
3521.00,-0.0963
3520.00,-0.0963
3519.00,-0.0963
3518.00,-0.0963
3517.00,-0.0963
3516.00,-0.0963
3515.00,-0.0962
3514.00,-0.0962
3513.00,-0.0962
3512.00,-0.0962
3511.00,-0.0962
3510.00,-0.0962
3509.00,-0.0962
3508.00,-0.0962
3507.00,-0.0961
3506.00,-0.0961
3505.00,-0.0961
3504.00,-0.0961
3503.00,-0.0960
3502.00,-0.0960
3501.00,-0.0960
3500.00,-0.0960
3499.00,-0.0960
3498.00,-0.0960
3497.00,-0.0960
3496.00,-0.0960
3495.00,-0.0960
3494.00,-0.0960
3493.00,-0.0960
3492.00,-0.0960
3491.00,-0.0960
3490.00,-0.0960
3489.00,-0.0960
3488.00,-0.0960
3487.00,-0.0961
3486.00,-0.0961
3485.00,-0.0961
3484.00,-0.0961
3483.00,-0.0961
3482.00,-0.0962
3481.00,-0.0962
3480.00,-0.0962
3479.00,-0.0962
3478.00,-0.0963
3477.00,-0.0963
3476.00,-0.0963
3475.00,-0.0963
3474.00,-0.0964
3473.00,-0.0964
3472.00,-0.0964
3471.00,-0.0964
3470.00,-0.0964
3469.00,-0.0964
3468.00,-0.0964
3467.00,-0.0965
3466.00,-0.0965
3465.00,-0.0965
3464.00,-0.0965
3463.00,-0.0965
3462.00,-0.0966
3461.00,-0.0966
3460.00,-0.0966
3459.00,-0.0966
3458.00,-0.0966
3457.00,-0.0966
3456.00,-0.0966
3455.00,-0.0966
3454.00,-0.0966
3453.00,-0.0966
3452.00,-0.0966
3451.00,-0.0966
3450.00,-0.0967
3449.00,-0.0967
3448.00,-0.0967
3447.00,-0.0967
3446.00,-0.0967
3445.00,-0.0967
3444.00,-0.0967
3443.00,-0.0967
3442.00,-0.0967
3441.00,-0.0967
3440.00,-0.0967
3439.00,-0.0967
3438.00,-0.0968
3437.00,-0.0968
3436.00,-0.0968
3435.00,-0.0968
3434.00,-0.0968
3433.00,-0.0968
3432.00,-0.0969
3431.00,-0.0969
3430.00,-0.0969
3429.00,-0.0969
3428.00,-0.0969
3427.00,-0.0969
3426.00,-0.0969
3425.00,-0.0970
3424.00,-0.0970
3423.00,-0.0970
3422.00,-0.0970
3421.00,-0.0969
3420.00,-0.0969
3419.00,-0.0969
3418.00,-0.0969
3417.00,-0.0969
3416.00,-0.0968
3415.00,-0.0968
3414.00,-0.0968
3413.00,-0.0967
3412.00,-0.0967
3411.00,-0.0966
3410.00,-0.0966
3409.00,-0.0966
3408.00,-0.0965
3407.00,-0.0965
3406.00,-0.0964
3405.00,-0.0964
3404.00,-0.0963
3403.00,-0.0963
3402.00,-0.0962
3401.00,-0.0962
3400.00,-0.0961
3399.00,-0.0961
3398.00,-0.0960
3397.00,-0.0960
3396.00,-0.0960
3395.00,-0.0959
3394.00,-0.0959
3393.00,-0.0958
3392.00,-0.0958
3391.00,-0.0958
3390.00,-0.0957
3389.00,-0.0957
3388.00,-0.0957
3387.00,-0.0957
3386.00,-0.0957
3385.00,-0.0957
3384.00,-0.0956
3383.00,-0.0956
3382.00,-0.0956
3381.00,-0.0956
3380.00,-0.0956
3379.00,-0.0956
3378.00,-0.0956
3377.00,-0.0956
3376.00,-0.0956
3375.00,-0.0956
3374.00,-0.0955
3373.00,-0.0955
3372.00,-0.0955
3371.00,-0.0955
3370.00,-0.0955
3369.00,-0.0955
3368.00,-0.0955
3367.00,-0.0955
3366.00,-0.0955
3365.00,-0.0955
3364.00,-0.0955
3363.00,-0.0955
3362.00,-0.0955
3361.00,-0.0955
3360.00,-0.0955
3359.00,-0.0955
3358.00,-0.0955
3357.00,-0.0955
3356.00,-0.0955
3355.00,-0.0955
3354.00,-0.0954
3353.00,-0.0954
3352.00,-0.0954
3351.00,-0.0954
3350.00,-0.0954
3349.00,-0.0954
3348.00,-0.0954
3347.00,-0.0954
3346.00,-0.0954
3345.00,-0.0954
3344.00,-0.0954
3343.00,-0.0954
3342.00,-0.0954
3341.00,-0.0954
3340.00,-0.0954
3339.00,-0.0954
3338.00,-0.0954
3337.00,-0.0954
3336.00,-0.0954
3335.00,-0.0955
3334.00,-0.0955
3333.00,-0.0955
3332.00,-0.0955
3331.00,-0.0955
3330.00,-0.0955
3329.00,-0.0956
3328.00,-0.0956
3327.00,-0.0956
3326.00,-0.0956
3325.00,-0.0957
3324.00,-0.0957
3323.00,-0.0957
3322.00,-0.0957
3321.00,-0.0958
3320.00,-0.0958
3319.00,-0.0958
3318.00,-0.0959
3317.00,-0.0959
3316.00,-0.0959
3315.00,-0.0960
3314.00,-0.0960
3313.00,-0.0960
3312.00,-0.0961
3311.00,-0.0961
3310.00,-0.0962
3309.00,-0.0963
3308.00,-0.0963
3307.00,-0.0964
3306.00,-0.0964
3305.00,-0.0965
3304.00,-0.0965
3303.00,-0.0965
3302.00,-0.0966
3301.00,-0.0965
3300.00,-0.0965
3299.00,-0.0965
3298.00,-0.0964
3297.00,-0.0963
3296.00,-0.0963
3295.00,-0.0962
3294.00,-0.0961
3293.00,-0.0961
3292.00,-0.0960
3291.00,-0.0959
3290.00,-0.0959
3289.00,-0.0958
3288.00,-0.0957
3287.00,-0.0957
3286.00,-0.0956
3285.00,-0.0956
3284.00,-0.0955
3283.00,-0.0955
3282.00,-0.0954
3281.00,-0.0954
3280.00,-0.0954
3279.00,-0.0953
3278.00,-0.0953
3277.00,-0.0953
3276.00,-0.0953
3275.00,-0.0952
3274.00,-0.0952
3273.00,-0.0952
3272.00,-0.0952
3271.00,-0.0951
3270.00,-0.0951
3269.00,-0.0951
3268.00,-0.0951
3267.00,-0.0951
3266.00,-0.0951
3265.00,-0.0951
3264.00,-0.0951
3263.00,-0.0951
3262.00,-0.0951
3261.00,-0.0952
3260.00,-0.0952
3259.00,-0.0952
3258.00,-0.0952
3257.00,-0.0952
3256.00,-0.0952
3255.00,-0.0952
3254.00,-0.0952
3253.00,-0.0952
3252.00,-0.0952
3251.00,-0.0952
3250.00,-0.0952
3249.00,-0.0952
3248.00,-0.0952
3247.00,-0.0952
3246.00,-0.0952
3245.00,-0.0952
3244.00,-0.0952
3243.00,-0.0952
3242.00,-0.0952
3241.00,-0.0952
3240.00,-0.0952
3239.00,-0.0952
3238.00,-0.0952
3237.00,-0.0952
3236.00,-0.0952
3235.00,-0.0952
3234.00,-0.0952
3233.00,-0.0952
3232.00,-0.0952
3231.00,-0.0952
3230.00,-0.0952
3229.00,-0.0952
3228.00,-0.0953
3227.00,-0.0953
3226.00,-0.0953
3225.00,-0.0953
3224.00,-0.0953
3223.00,-0.0953
3222.00,-0.0954
3221.00,-0.0954
3220.00,-0.0954
3219.00,-0.0954
3218.00,-0.0955
3217.00,-0.0955
3216.00,-0.0955
3215.00,-0.0956
3214.00,-0.0956
3213.00,-0.0956
3212.00,-0.0957
3211.00,-0.0957
3210.00,-0.0957
3209.00,-0.0957
3208.00,-0.0958
3207.00,-0.0958
3206.00,-0.0958
3205.00,-0.0958
3204.00,-0.0958
3203.00,-0.0958
3202.00,-0.0959
3201.00,-0.0959
3200.00,-0.0959
3199.00,-0.0959
3198.00,-0.0959
3197.00,-0.0959
3196.00,-0.0959
3195.00,-0.0959
3194.00,-0.0959
3193.00,-0.0959
3192.00,-0.0958
3191.00,-0.0958
3190.00,-0.0958
3189.00,-0.0958
3188.00,-0.0958
3187.00,-0.0958
3186.00,-0.0958
3185.00,-0.0958
3184.00,-0.0958
3183.00,-0.0958
3182.00,-0.0958
3181.00,-0.0958
3180.00,-0.0958
3179.00,-0.0958
3178.00,-0.0958
3177.00,-0.0957
3176.00,-0.0957
3175.00,-0.0957
3174.00,-0.0957
3173.00,-0.0957
3172.00,-0.0957
3171.00,-0.0957
3170.00,-0.0957
3169.00,-0.0957
3168.00,-0.0957
3167.00,-0.0957
3166.00,-0.0957
3165.00,-0.0957
3164.00,-0.0958
3163.00,-0.0958
3162.00,-0.0958
3161.00,-0.0958
3160.00,-0.0958
3159.00,-0.0959
3158.00,-0.0959
3157.00,-0.0959
3156.00,-0.0959
3155.00,-0.0959
3154.00,-0.0959
3153.00,-0.0959
3152.00,-0.0959
3151.00,-0.0959
3150.00,-0.0959
3149.00,-0.0959
3148.00,-0.0959
3147.00,-0.0959
3146.00,-0.0959
3145.00,-0.0959
3144.00,-0.0959
3143.00,-0.0959
3142.00,-0.0959
3141.00,-0.0959
3140.00,-0.0959
3139.00,-0.0959
3138.00,-0.0959
3137.00,-0.0959
3136.00,-0.0959
3135.00,-0.0959
3134.00,-0.0959
3133.00,-0.0959
3132.00,-0.0958
3131.00,-0.0958
3130.00,-0.0958
3129.00,-0.0958
3128.00,-0.0959
3127.00,-0.0959
3126.00,-0.0959
3125.00,-0.0959
3124.00,-0.0959
3123.00,-0.0959
3122.00,-0.0959
3121.00,-0.0959
3120.00,-0.0959
3119.00,-0.0960
3118.00,-0.0960
3117.00,-0.0960
3116.00,-0.0960
3115.00,-0.0961
3114.00,-0.0961
3113.00,-0.0962
3112.00,-0.0962
3111.00,-0.0963
3110.00,-0.0963
3109.00,-0.0963
3108.00,-0.0964
3107.00,-0.0964
3106.00,-0.0964
3105.00,-0.0965
3104.00,-0.0965
3103.00,-0.0965
3102.00,-0.0965
3101.00,-0.0965
3100.00,-0.0966
3099.00,-0.0966
3098.00,-0.0966
3097.00,-0.0966
3096.00,-0.0966
3095.00,-0.0966
3094.00,-0.0966
3093.00,-0.0966
3092.00,-0.0966
3091.00,-0.0966
3090.00,-0.0966
3089.00,-0.0966
3088.00,-0.0966
3087.00,-0.0966
3086.00,-0.0966
3085.00,-0.0966
3084.00,-0.0967
3083.00,-0.0967
3082.00,-0.0967
3081.00,-0.0967
3080.00,-0.0967
3079.00,-0.0967
3078.00,-0.0967
3077.00,-0.0967
3076.00,-0.0968
3075.00,-0.0968
3074.00,-0.0968
3073.00,-0.0968
3072.00,-0.0968
3071.00,-0.0968
3070.00,-0.0968
3069.00,-0.0968
3068.00,-0.0968
3067.00,-0.0968
3066.00,-0.0968
3065.00,-0.0968
3064.00,-0.0968
3063.00,-0.0968
3062.00,-0.0968
3061.00,-0.0968
3060.00,-0.0968
3059.00,-0.0968
3058.00,-0.0968
3057.00,-0.0968
3056.00,-0.0969
3055.00,-0.0969
3054.00,-0.0969
3053.00,-0.0969
3052.00,-0.0969
3051.00,-0.0969
3050.00,-0.0969
3049.00,-0.0969
3048.00,-0.0969
3047.00,-0.0969
3046.00,-0.0969
3045.00,-0.0969
3044.00,-0.0969
3043.00,-0.0969
3042.00,-0.0969
3041.00,-0.0969
3040.00,-0.0969
3039.00,-0.0969
3038.00,-0.0969
3037.00,-0.0969
3036.00,-0.0969
3035.00,-0.0969
3034.00,-0.0969
3033.00,-0.0969
3032.00,-0.0969
3031.00,-0.0969
3030.00,-0.0969
3029.00,-0.0969
3028.00,-0.0969
3027.00,-0.0968
3026.00,-0.0968
3025.00,-0.0968
3024.00,-0.0968
3023.00,-0.0968
3022.00,-0.0968
3021.00,-0.0968
3020.00,-0.0968
3019.00,-0.0968
3018.00,-0.0967
3017.00,-0.0967
3016.00,-0.0967
3015.00,-0.0967
3014.00,-0.0967
3013.00,-0.0967
3012.00,-0.0968
3011.00,-0.0968
3010.00,-0.0968
3009.00,-0.0968
3008.00,-0.0968
3007.00,-0.0968
3006.00,-0.0968
3005.00,-0.0968
3004.00,-0.0968
3003.00,-0.0968
3002.00,-0.0968
3001.00,-0.0968
3000.00,-0.0968
2999.00,-0.0968
2998.00,-0.0968
2997.00,-0.0968
2996.00,-0.0968
2995.00,-0.0968
2994.00,-0.0968
2993.00,-0.0968
2992.00,-0.0968
2991.00,-0.0968
2990.00,-0.0968
2989.00,-0.0969
2988.00,-0.0969
2987.00,-0.0968
2986.00,-0.0968
2985.00,-0.0968
2984.00,-0.0968
2983.00,-0.0968
2982.00,-0.0968
2981.00,-0.0968
2980.00,-0.0968
2979.00,-0.0968
2978.00,-0.0968
2977.00,-0.0968
2976.00,-0.0968
2975.00,-0.0968
2974.00,-0.0967
2973.00,-0.0967
2972.00,-0.0967
2971.00,-0.0967
2970.00,-0.0967
2969.00,-0.0967
2968.00,-0.0967
2967.00,-0.0967
2966.00,-0.0967
2965.00,-0.0967
2964.00,-0.0967
2963.00,-0.0967
2962.00,-0.0967
2961.00,-0.0967
2960.00,-0.0967
2959.00,-0.0967
2958.00,-0.0967
2957.00,-0.0967
2956.00,-0.0968
2955.00,-0.0968
2954.00,-0.0968
2953.00,-0.0968
2952.00,-0.0968
2951.00,-0.0968
2950.00,-0.0968
2949.00,-0.0968
2948.00,-0.0968
2947.00,-0.0968
2946.00,-0.0968
2945.00,-0.0968
2944.00,-0.0969
2943.00,-0.0969
2942.00,-0.0969
2941.00,-0.0969
2940.00,-0.0969
2939.00,-0.0969
2938.00,-0.0969
2937.00,-0.0969
2936.00,-0.0969
2935.00,-0.0969
2934.00,-0.0969
2933.00,-0.0969
2932.00,-0.0969
2931.00,-0.0969
2930.00,-0.0969
2929.00,-0.0969
2928.00,-0.0969
2927.00,-0.0969
2926.00,-0.0969
2925.00,-0.0969
2924.00,-0.0969
2923.00,-0.0969
2922.00,-0.0969
2921.00,-0.0968
2920.00,-0.0968
2919.00,-0.0968
2918.00,-0.0968
2917.00,-0.0968
2916.00,-0.0967
2915.00,-0.0967
2914.00,-0.0967
2913.00,-0.0967
2912.00,-0.0966
2911.00,-0.0966
2910.00,-0.0966
2909.00,-0.0966
2908.00,-0.0966
2907.00,-0.0966
2906.00,-0.0966
2905.00,-0.0966
2904.00,-0.0966
2903.00,-0.0966
2902.00,-0.0966
2901.00,-0.0966
2900.00,-0.0966
2899.00,-0.0967
2898.00,-0.0967
2897.00,-0.0967
2896.00,-0.0967
2895.00,-0.0967
2894.00,-0.0967
2893.00,-0.0967
2892.00,-0.0968
2891.00,-0.0968
2890.00,-0.0968
2889.00,-0.0968
2888.00,-0.0968
2887.00,-0.0968
2886.00,-0.0968
2885.00,-0.0968
2884.00,-0.0968
2883.00,-0.0968
2882.00,-0.0968
2881.00,-0.0968
2880.00,-0.0968
2879.00,-0.0968
2878.00,-0.0968
2877.00,-0.0968
2876.00,-0.0967
2875.00,-0.0967
2874.00,-0.0967
2873.00,-0.0967
2872.00,-0.0967
2871.00,-0.0967
2870.00,-0.0967
2869.00,-0.0967
2868.00,-0.0967
2867.00,-0.0966
2866.00,-0.0966
2865.00,-0.0966
2864.00,-0.0966
2863.00,-0.0966
2862.00,-0.0966
2861.00,-0.0966
2860.00,-0.0966
2859.00,-0.0966
2858.00,-0.0966
2857.00,-0.0966
2856.00,-0.0967
2855.00,-0.0967
2854.00,-0.0967
2853.00,-0.0967
2852.00,-0.0967
2851.00,-0.0967
2850.00,-0.0967
2849.00,-0.0967
2848.00,-0.0967
2847.00,-0.0967
2846.00,-0.0967
2845.00,-0.0967
2844.00,-0.0967
2843.00,-0.0967
2842.00,-0.0967
2841.00,-0.0967
2840.00,-0.0967
2839.00,-0.0967
2838.00,-0.0967
2837.00,-0.0968
2836.00,-0.0968
2835.00,-0.0968
2834.00,-0.0968
2833.00,-0.0968
2832.00,-0.0968
2831.00,-0.0968
2830.00,-0.0968
2829.00,-0.0968
2828.00,-0.0967
2827.00,-0.0967
2826.00,-0.0967
2825.00,-0.0967
2824.00,-0.0967
2823.00,-0.0967
2822.00,-0.0966
2821.00,-0.0966
2820.00,-0.0966
2819.00,-0.0966
2818.00,-0.0965
2817.00,-0.0965
2816.00,-0.0965
2815.00,-0.0965
2814.00,-0.0965
2813.00,-0.0965
2812.00,-0.0964
2811.00,-0.0964
2810.00,-0.0964
2809.00,-0.0964
2808.00,-0.0964
2807.00,-0.0964
2806.00,-0.0964
2805.00,-0.0964
2804.00,-0.0964
2803.00,-0.0964
2802.00,-0.0964
2801.00,-0.0964
2800.00,-0.0964
2799.00,-0.0965
2798.00,-0.0965
2797.00,-0.0965
2796.00,-0.0965
2795.00,-0.0965
2794.00,-0.0965
2793.00,-0.0965
2792.00,-0.0965
2791.00,-0.0965
2790.00,-0.0965
2789.00,-0.0965
2788.00,-0.0965
2787.00,-0.0966
2786.00,-0.0966
2785.00,-0.0966
2784.00,-0.0966
2783.00,-0.0966
2782.00,-0.0966
2781.00,-0.0966
2780.00,-0.0965
2779.00,-0.0965
2778.00,-0.0965
2777.00,-0.0965
2776.00,-0.0965
2775.00,-0.0965
2774.00,-0.0965
2773.00,-0.0965
2772.00,-0.0965
2771.00,-0.0964
2770.00,-0.0964
2769.00,-0.0964
2768.00,-0.0964
2767.00,-0.0964
2766.00,-0.0964
2765.00,-0.0964
2764.00,-0.0963
2763.00,-0.0963
2762.00,-0.0963
2761.00,-0.0963
2760.00,-0.0963
2759.00,-0.0963
2758.00,-0.0963
2757.00,-0.0963
2756.00,-0.0962
2755.00,-0.0962
2754.00,-0.0962
2753.00,-0.0962
2752.00,-0.0962
2751.00,-0.0962
2750.00,-0.0962
2749.00,-0.0963
2748.00,-0.0963
2747.00,-0.0963
2746.00,-0.0963
2745.00,-0.0963
2744.00,-0.0963
2743.00,-0.0963
2742.00,-0.0964
2741.00,-0.0964
2740.00,-0.0964
2739.00,-0.0964
2738.00,-0.0964
2737.00,-0.0964
2736.00,-0.0964
2735.00,-0.0964
2734.00,-0.0964
2733.00,-0.0964
2732.00,-0.0964
2731.00,-0.0964
2730.00,-0.0964
2729.00,-0.0964
2728.00,-0.0964
2727.00,-0.0964
2726.00,-0.0963
2725.00,-0.0963
2724.00,-0.0963
2723.00,-0.0963
2722.00,-0.0962
2721.00,-0.0962
2720.00,-0.0962
2719.00,-0.0962
2718.00,-0.0961
2717.00,-0.0961
2716.00,-0.0961
2715.00,-0.0961
2714.00,-0.0960
2713.00,-0.0960
2712.00,-0.0960
2711.00,-0.0960
2710.00,-0.0960
2709.00,-0.0959
2708.00,-0.0959
2707.00,-0.0959
2706.00,-0.0959
2705.00,-0.0959
2704.00,-0.0959
2703.00,-0.0958
2702.00,-0.0958
2701.00,-0.0958
2700.00,-0.0958
2699.00,-0.0958
2698.00,-0.0958
2697.00,-0.0958
2696.00,-0.0958
2695.00,-0.0958
2694.00,-0.0958
2693.00,-0.0958
2692.00,-0.0958
2691.00,-0.0958
2690.00,-0.0959
2689.00,-0.0959
2688.00,-0.0959
2687.00,-0.0959
2686.00,-0.0959
2685.00,-0.0959
2684.00,-0.0959
2683.00,-0.0960
2682.00,-0.0960
2681.00,-0.0960
2680.00,-0.0960
2679.00,-0.0960
2678.00,-0.0961
2677.00,-0.0961
2676.00,-0.0961
2675.00,-0.0961
2674.00,-0.0961
2673.00,-0.0961
2672.00,-0.0961
2671.00,-0.0961
2670.00,-0.0961
2669.00,-0.0960
2668.00,-0.0960
2667.00,-0.0960
2666.00,-0.0960
2665.00,-0.0959
2664.00,-0.0959
2663.00,-0.0959
2662.00,-0.0958
2661.00,-0.0958
2660.00,-0.0958
2659.00,-0.0957
2658.00,-0.0957
2657.00,-0.0957
2656.00,-0.0956
2655.00,-0.0956
2654.00,-0.0956
2653.00,-0.0956
2652.00,-0.0955
2651.00,-0.0955
2650.00,-0.0955
2649.00,-0.0955
2648.00,-0.0955
2647.00,-0.0955
2646.00,-0.0954
2645.00,-0.0954
2644.00,-0.0954
2643.00,-0.0954
2642.00,-0.0954
2641.00,-0.0954
2640.00,-0.0954
2639.00,-0.0954
2638.00,-0.0954
2637.00,-0.0954
2636.00,-0.0954
2635.00,-0.0955
2634.00,-0.0955
2633.00,-0.0955
2632.00,-0.0955
2631.00,-0.0955
2630.00,-0.0955
2629.00,-0.0955
2628.00,-0.0956
2627.00,-0.0956
2626.00,-0.0956
2625.00,-0.0956
2624.00,-0.0956
2623.00,-0.0957
2622.00,-0.0957
2621.00,-0.0957
2620.00,-0.0957
2619.00,-0.0957
2618.00,-0.0957
2617.00,-0.0957
2616.00,-0.0957
2615.00,-0.0957
2614.00,-0.0957
2613.00,-0.0957
2612.00,-0.0957
2611.00,-0.0957
2610.00,-0.0957
2609.00,-0.0957
2608.00,-0.0956
2607.00,-0.0956
2606.00,-0.0956
2605.00,-0.0956
2604.00,-0.0956
2603.00,-0.0956
2602.00,-0.0956
2601.00,-0.0955
2600.00,-0.0955
2599.00,-0.0955
2598.00,-0.0955
2597.00,-0.0955
2596.00,-0.0955
2595.00,-0.0955
2594.00,-0.0955
2593.00,-0.0955
2592.00,-0.0955
2591.00,-0.0955
2590.00,-0.0955
2589.00,-0.0955
2588.00,-0.0955
2587.00,-0.0955
2586.00,-0.0955
2585.00,-0.0956
2584.00,-0.0956
2583.00,-0.0956
2582.00,-0.0956
2581.00,-0.0956
2580.00,-0.0956
2579.00,-0.0956
2578.00,-0.0956
2577.00,-0.0956
2576.00,-0.0956
2575.00,-0.0956
2574.00,-0.0956
2573.00,-0.0956
2572.00,-0.0956
2571.00,-0.0956
2570.00,-0.0956
2569.00,-0.0956
2568.00,-0.0956
2567.00,-0.0956
2566.00,-0.0956
2565.00,-0.0956
2564.00,-0.0956
2563.00,-0.0955
2562.00,-0.0955
2561.00,-0.0955
2560.00,-0.0955
2559.00,-0.0954
2558.00,-0.0954
2557.00,-0.0954
2556.00,-0.0954
2555.00,-0.0953
2554.00,-0.0953
2553.00,-0.0953
2552.00,-0.0952
2551.00,-0.0952
2550.00,-0.0952
2549.00,-0.0952
2548.00,-0.0951
2547.00,-0.0951
2546.00,-0.0951
2545.00,-0.0950
2544.00,-0.0950
2543.00,-0.0950
2542.00,-0.0950
2541.00,-0.0950
2540.00,-0.0950
2539.00,-0.0949
2538.00,-0.0949
2537.00,-0.0949
2536.00,-0.0950
2535.00,-0.0950
2534.00,-0.0950
2533.00,-0.0950
2532.00,-0.0950
2531.00,-0.0950
2530.00,-0.0950
2529.00,-0.0950
2528.00,-0.0951
2527.00,-0.0951
2526.00,-0.0951
2525.00,-0.0951
2524.00,-0.0951
2523.00,-0.0951
2522.00,-0.0951
2521.00,-0.0951
2520.00,-0.0950
2519.00,-0.0950
2518.00,-0.0950
2517.00,-0.0950
2516.00,-0.0950
2515.00,-0.0950
2514.00,-0.0949
2513.00,-0.0949
2512.00,-0.0949
2511.00,-0.0949
2510.00,-0.0948
2509.00,-0.0948
2508.00,-0.0948
2507.00,-0.0947
2506.00,-0.0947
2505.00,-0.0947
2504.00,-0.0946
2503.00,-0.0946
2502.00,-0.0946
2501.00,-0.0945
2500.00,-0.0945
2499.00,-0.0945
2498.00,-0.0944
2497.00,-0.0944
2496.00,-0.0944
2495.00,-0.0943
2494.00,-0.0943
2493.00,-0.0943
2492.00,-0.0943
2491.00,-0.0943
2490.00,-0.0942
2489.00,-0.0942
2488.00,-0.0942
2487.00,-0.0942
2486.00,-0.0942
2485.00,-0.0942
2484.00,-0.0942
2483.00,-0.0942
2482.00,-0.0942
2481.00,-0.0942
2480.00,-0.0942
2479.00,-0.0942
2478.00,-0.0942
2477.00,-0.0942
2476.00,-0.0942
2475.00,-0.0942
2474.00,-0.0942
2473.00,-0.0942
2472.00,-0.0942
2471.00,-0.0942
2470.00,-0.0942
2469.00,-0.0942
2468.00,-0.0942
2467.00,-0.0942
2466.00,-0.0942
2465.00,-0.0942
2464.00,-0.0942
2463.00,-0.0942
2462.00,-0.0942
2461.00,-0.0942
2460.00,-0.0942
2459.00,-0.0942
2458.00,-0.0941
2457.00,-0.0941
2456.00,-0.0941
2455.00,-0.0941
2454.00,-0.0941
2453.00,-0.0941
2452.00,-0.0941
2451.00,-0.0941
2450.00,-0.0941
2449.00,-0.0941
2448.00,-0.0941
2447.00,-0.0941
2446.00,-0.0941
2445.00,-0.0941
2444.00,-0.0941
2443.00,-0.0941
2442.00,-0.0941
2441.00,-0.0941
2440.00,-0.0942
2439.00,-0.0942
2438.00,-0.0942
2437.00,-0.0942
2436.00,-0.0942
2435.00,-0.0943
2434.00,-0.0943
2433.00,-0.0943
2432.00,-0.0944
2431.00,-0.0944
2430.00,-0.0944
2429.00,-0.0945
2428.00,-0.0945
2427.00,-0.0945
2426.00,-0.0946
2425.00,-0.0946
2424.00,-0.0947
2423.00,-0.0947
2422.00,-0.0948
2421.00,-0.0948
2420.00,-0.0948
2419.00,-0.0949
2418.00,-0.0949
2417.00,-0.0949
2416.00,-0.0949
2415.00,-0.0949
2414.00,-0.0950
2413.00,-0.0950
2412.00,-0.0950
2411.00,-0.0950
2410.00,-0.0950
2409.00,-0.0950
2408.00,-0.0950
2407.00,-0.0950
2406.00,-0.0949
2405.00,-0.0949
2404.00,-0.0949
2403.00,-0.0948
2402.00,-0.0948
2401.00,-0.0948
2400.00,-0.0948
2399.00,-0.0947
2398.00,-0.0947
2397.00,-0.0947
2396.00,-0.0946
2395.00,-0.0946
2394.00,-0.0946
2393.00,-0.0946
2392.00,-0.0945
2391.00,-0.0945
2390.00,-0.0945
2389.00,-0.0945
2388.00,-0.0945
2387.00,-0.0945
2386.00,-0.0945
2385.00,-0.0945
2384.00,-0.0946
2383.00,-0.0946
2382.00,-0.0946
2381.00,-0.0946
2380.00,-0.0946
2379.00,-0.0945
2378.00,-0.0945
2377.00,-0.0945
2376.00,-0.0945
2375.00,-0.0945
2374.00,-0.0945
2373.00,-0.0945
2372.00,-0.0945
2371.00,-0.0945
2370.00,-0.0945
2369.00,-0.0945
2368.00,-0.0945
2367.00,-0.0944
2366.00,-0.0944
2365.00,-0.0944
2364.00,-0.0944
2363.00,-0.0945
2362.00,-0.0945
2361.00,-0.0945
2360.00,-0.0945
2359.00,-0.0945
2358.00,-0.0945
2357.00,-0.0945
2356.00,-0.0945
2355.00,-0.0945
2354.00,-0.0945
2353.00,-0.0945
2352.00,-0.0945
2351.00,-0.0945
2350.00,-0.0945
2349.00,-0.0945
2348.00,-0.0945
2347.00,-0.0945
2346.00,-0.0945
2345.00,-0.0945
2344.00,-0.0945
2343.00,-0.0945
2342.00,-0.0945
2341.00,-0.0944
2340.00,-0.0944
2339.00,-0.0944
2338.00,-0.0944
2337.00,-0.0944
2336.00,-0.0944
2335.00,-0.0944
2334.00,-0.0945
2333.00,-0.0945
2332.00,-0.0945
2331.00,-0.0945
2330.00,-0.0945
2329.00,-0.0945
2328.00,-0.0945
2327.00,-0.0945
2326.00,-0.0945
2325.00,-0.0945
2324.00,-0.0944
2323.00,-0.0944
2322.00,-0.0944
2321.00,-0.0944
2320.00,-0.0943
2319.00,-0.0943
2318.00,-0.0943
2317.00,-0.0942
2316.00,-0.0942
2315.00,-0.0941
2314.00,-0.0941
2313.00,-0.0942
2312.00,-0.0942
2311.00,-0.0942
2310.00,-0.0942
2309.00,-0.0942
2308.00,-0.0942
2307.00,-0.0942
2306.00,-0.0942
2305.00,-0.0942
2304.00,-0.0942
2303.00,-0.0941
2302.00,-0.0941
2301.00,-0.0941
2300.00,-0.0941
2299.00,-0.0941
2298.00,-0.0941
2297.00,-0.0941
2296.00,-0.0940
2295.00,-0.0940
2294.00,-0.0940
2293.00,-0.0940
2292.00,-0.0939
2291.00,-0.0939
2290.00,-0.0939
2289.00,-0.0939
2288.00,-0.0939
2287.00,-0.0938
2286.00,-0.0938
2285.00,-0.0938
2284.00,-0.0938
2283.00,-0.0938
2282.00,-0.0937
2281.00,-0.0937
2280.00,-0.0937
2279.00,-0.0937
2278.00,-0.0937
2277.00,-0.0937
2276.00,-0.0937
2275.00,-0.0937
2274.00,-0.0937
2273.00,-0.0937
2272.00,-0.0937
2271.00,-0.0937
2270.00,-0.0937
2269.00,-0.0937
2268.00,-0.0937
2267.00,-0.0938
2266.00,-0.0938
2265.00,-0.0938
2264.00,-0.0938
2263.00,-0.0938
2262.00,-0.0938
2261.00,-0.0939
2260.00,-0.0939
2259.00,-0.0939
2258.00,-0.0939
2257.00,-0.0939
2256.00,-0.0939
2255.00,-0.0939
2254.00,-0.0939
2253.00,-0.0940
2252.00,-0.0940
2251.00,-0.0940
2250.00,-0.0940
2249.00,-0.0939
2248.00,-0.0939
2247.00,-0.0939
2246.00,-0.0939
2245.00,-0.0939
2244.00,-0.0939
2243.00,-0.0938
2242.00,-0.0938
2241.00,-0.0938
2240.00,-0.0937
2239.00,-0.0937
2238.00,-0.0937
2237.00,-0.0936
2236.00,-0.0936
2235.00,-0.0935
2234.00,-0.0935
2233.00,-0.0935
2232.00,-0.0934
2231.00,-0.0934
2230.00,-0.0934
2229.00,-0.0933
2228.00,-0.0933
2227.00,-0.0933
2226.00,-0.0932
2225.00,-0.0932
2224.00,-0.0932
2223.00,-0.0932
2222.00,-0.0931
2221.00,-0.0931
2220.00,-0.0931
2219.00,-0.0931
2218.00,-0.0931
2217.00,-0.0931
2216.00,-0.0932
2215.00,-0.0932
2214.00,-0.0932
2213.00,-0.0932
2212.00,-0.0932
2211.00,-0.0932
2210.00,-0.0932
2209.00,-0.0932
2208.00,-0.0932
2207.00,-0.0932
2206.00,-0.0932
2205.00,-0.0932
2204.00,-0.0932
2203.00,-0.0932
2202.00,-0.0932
2201.00,-0.0932
2200.00,-0.0932
2199.00,-0.0931
2198.00,-0.0931
2197.00,-0.0931
2196.00,-0.0931
2195.00,-0.0930
2194.00,-0.0930
2193.00,-0.0930
2192.00,-0.0929
2191.00,-0.0929
2190.00,-0.0929
2189.00,-0.0928
2188.00,-0.0928
2187.00,-0.0927
2186.00,-0.0927
2185.00,-0.0927
2184.00,-0.0927
2183.00,-0.0926
2182.00,-0.0926
2181.00,-0.0926
2180.00,-0.0926
2179.00,-0.0926
2178.00,-0.0925
2177.00,-0.0925
2176.00,-0.0925
2175.00,-0.0925
2174.00,-0.0925
2173.00,-0.0925
2172.00,-0.0925
2171.00,-0.0925
2170.00,-0.0926
2169.00,-0.0926
2168.00,-0.0926
2167.00,-0.0926
2166.00,-0.0927
2165.00,-0.0927
2164.00,-0.0927
2163.00,-0.0928
2162.00,-0.0928
2161.00,-0.0928
2160.00,-0.0929
2159.00,-0.0929
2158.00,-0.0929
2157.00,-0.0930
2156.00,-0.0930
2155.00,-0.0930
2154.00,-0.0930
2153.00,-0.0930
2152.00,-0.0930
2151.00,-0.0930
2150.00,-0.0930
2149.00,-0.0930
2148.00,-0.0930
2147.00,-0.0930
2146.00,-0.0930
2145.00,-0.0930
2144.00,-0.0930
2143.00,-0.0930
2142.00,-0.0929
2141.00,-0.0929
2140.00,-0.0929
2139.00,-0.0928
2138.00,-0.0928
2137.00,-0.0928
2136.00,-0.0928
2135.00,-0.0927
2134.00,-0.0927
2133.00,-0.0927
2132.00,-0.0926
2131.00,-0.0926
2130.00,-0.0926
2129.00,-0.0925
2128.00,-0.0925
2127.00,-0.0925
2126.00,-0.0925
2125.00,-0.0925
2124.00,-0.0924
2123.00,-0.0924
2122.00,-0.0924
2121.00,-0.0924
2120.00,-0.0924
2119.00,-0.0924
2118.00,-0.0924
2117.00,-0.0924
2116.00,-0.0924
2115.00,-0.0924
2114.00,-0.0924
2113.00,-0.0924
2112.00,-0.0925
2111.00,-0.0925
2110.00,-0.0925
2109.00,-0.0925
2108.00,-0.0925
2107.00,-0.0925
2106.00,-0.0925
2105.00,-0.0925
2104.00,-0.0925
2103.00,-0.0925
2102.00,-0.0926
2101.00,-0.0926
2100.00,-0.0926
2099.00,-0.0926
2098.00,-0.0926
2097.00,-0.0926
2096.00,-0.0926
2095.00,-0.0926
2094.00,-0.0927
2093.00,-0.0927
2092.00,-0.0927
2091.00,-0.0927
2090.00,-0.0927
2089.00,-0.0927
2088.00,-0.0927
2087.00,-0.0927
2086.00,-0.0927
2085.00,-0.0927
2084.00,-0.0927
2083.00,-0.0927
2082.00,-0.0927
2081.00,-0.0927
2080.00,-0.0927
2079.00,-0.0927
2078.00,-0.0927
2077.00,-0.0927
2076.00,-0.0926
2075.00,-0.0926
2074.00,-0.0926
2073.00,-0.0926
2072.00,-0.0926
2071.00,-0.0926
2070.00,-0.0925
2069.00,-0.0925
2068.00,-0.0925
2067.00,-0.0925
2066.00,-0.0925
2065.00,-0.0924
2064.00,-0.0924
2063.00,-0.0924
2062.00,-0.0924
2061.00,-0.0924
2060.00,-0.0924
2059.00,-0.0924
2058.00,-0.0924
2057.00,-0.0924
2056.00,-0.0924
2055.00,-0.0924
2054.00,-0.0924
2053.00,-0.0924
2052.00,-0.0924
2051.00,-0.0925
2050.00,-0.0925
2049.00,-0.0925
2048.00,-0.0925
2047.00,-0.0925
2046.00,-0.0926
2045.00,-0.0926
2044.00,-0.0926
2043.00,-0.0926
2042.00,-0.0927
2041.00,-0.0927
2040.00,-0.0927
2039.00,-0.0927
2038.00,-0.0928
2037.00,-0.0928
2036.00,-0.0928
2035.00,-0.0928
2034.00,-0.0928
2033.00,-0.0928
2032.00,-0.0928
2031.00,-0.0928
2030.00,-0.0928
2029.00,-0.0928
2028.00,-0.0927
2027.00,-0.0927
2026.00,-0.0927
2025.00,-0.0926
2024.00,-0.0926
2023.00,-0.0926
2022.00,-0.0925
2021.00,-0.0925
2020.00,-0.0925
2019.00,-0.0924
2018.00,-0.0924
2017.00,-0.0924
2016.00,-0.0924
2015.00,-0.0923
2014.00,-0.0923
2013.00,-0.0923
2012.00,-0.0923
2011.00,-0.0923
2010.00,-0.0923
2009.00,-0.0923
2008.00,-0.0924
2007.00,-0.0924
2006.00,-0.0924
2005.00,-0.0925
2004.00,-0.0925
2003.00,-0.0925
2002.00,-0.0926
2001.00,-0.0926
2000.00,-0.0927
1999.00,-0.0927
1998.00,-0.0928
1997.00,-0.0929
1996.00,-0.0929
1995.00,-0.0930
1994.00,-0.0930
1993.00,-0.0931
1992.00,-0.0932
1991.00,-0.0932
1990.00,-0.0933
1989.00,-0.0934
1988.00,-0.0934
1987.00,-0.0935
1986.00,-0.0935
1985.00,-0.0936
1984.00,-0.0937
1983.00,-0.0937
1982.00,-0.0937
1981.00,-0.0937
1980.00,-0.0938
1979.00,-0.0938
1978.00,-0.0938
1977.00,-0.0938
1976.00,-0.0938
1975.00,-0.0938
1974.00,-0.0937
1973.00,-0.0937
1972.00,-0.0937
1971.00,-0.0936
1970.00,-0.0935
1969.00,-0.0935
1968.00,-0.0934
1967.00,-0.0934
1966.00,-0.0934
1965.00,-0.0933
1964.00,-0.0933
1963.00,-0.0933
1962.00,-0.0933
1961.00,-0.0934
1960.00,-0.0934
1959.00,-0.0935
1958.00,-0.0935
1957.00,-0.0936
1956.00,-0.0937
1955.00,-0.0938
1954.00,-0.0939
1953.00,-0.0940
1952.00,-0.0940
1951.00,-0.0941
1950.00,-0.0942
1949.00,-0.0943
1948.00,-0.0943
1947.00,-0.0943
1946.00,-0.0944
1945.00,-0.0944
1944.00,-0.0944
1943.00,-0.0944
1942.00,-0.0943
1941.00,-0.0943
1940.00,-0.0943
1939.00,-0.0942
1938.00,-0.0941
1937.00,-0.0940
1936.00,-0.0940
1935.00,-0.0939
1934.00,-0.0938
1933.00,-0.0937
1932.00,-0.0937
1931.00,-0.0936
1930.00,-0.0935
1929.00,-0.0935
1928.00,-0.0934
1927.00,-0.0934
1926.00,-0.0934
1925.00,-0.0934
1924.00,-0.0933
1923.00,-0.0933
1922.00,-0.0933
1921.00,-0.0933
1920.00,-0.0933
1919.00,-0.0933
1918.00,-0.0933
1917.00,-0.0933
1916.00,-0.0933
1915.00,-0.0933
1914.00,-0.0932
1913.00,-0.0932
1912.00,-0.0932
1911.00,-0.0931
1910.00,-0.0931
1909.00,-0.0931
1908.00,-0.0931
1907.00,-0.0930
1906.00,-0.0930
1905.00,-0.0930
1904.00,-0.0930
1903.00,-0.0930
1902.00,-0.0930
1901.00,-0.0930
1900.00,-0.0930
1899.00,-0.0930
1898.00,-0.0930
1897.00,-0.0931
1896.00,-0.0931
1895.00,-0.0931
1894.00,-0.0931
1893.00,-0.0932
1892.00,-0.0932
1891.00,-0.0932
1890.00,-0.0933
1889.00,-0.0933
1888.00,-0.0934
1887.00,-0.0934
1886.00,-0.0935
1885.00,-0.0935
1884.00,-0.0935
1883.00,-0.0936
1882.00,-0.0936
1881.00,-0.0937
1880.00,-0.0937
1879.00,-0.0937
1878.00,-0.0938
1877.00,-0.0938
1876.00,-0.0938
1875.00,-0.0938
1874.00,-0.0939
1873.00,-0.0939
1872.00,-0.0939
1871.00,-0.0938
1870.00,-0.0938
1869.00,-0.0938
1868.00,-0.0938
1867.00,-0.0938
1866.00,-0.0938
1865.00,-0.0937
1864.00,-0.0937
1863.00,-0.0937
1862.00,-0.0937
1861.00,-0.0937
1860.00,-0.0937
1859.00,-0.0937
1858.00,-0.0937
1857.00,-0.0937
1856.00,-0.0938
1855.00,-0.0938
1854.00,-0.0939
1853.00,-0.0940
1852.00,-0.0940
1851.00,-0.0941
1850.00,-0.0942
1849.00,-0.0942
1848.00,-0.0943
1847.00,-0.0943
1846.00,-0.0944
1845.00,-0.0944
1844.00,-0.0945
1843.00,-0.0945
1842.00,-0.0946
1841.00,-0.0946
1840.00,-0.0946
1839.00,-0.0947
1838.00,-0.0947
1837.00,-0.0947
1836.00,-0.0947
1835.00,-0.0947
1834.00,-0.0947
1833.00,-0.0947
1832.00,-0.0947
1831.00,-0.0947
1830.00,-0.0947
1829.00,-0.0947
1828.00,-0.0947
1827.00,-0.0947
1826.00,-0.0948
1825.00,-0.0948
1824.00,-0.0948
1823.00,-0.0948
1822.00,-0.0948
1821.00,-0.0949
1820.00,-0.0949
1819.00,-0.0949
1818.00,-0.0949
1817.00,-0.0950
1816.00,-0.0950
1815.00,-0.0950
1814.00,-0.0950
1813.00,-0.0950
1812.00,-0.0950
1811.00,-0.0950
1810.00,-0.0951
1809.00,-0.0951
1808.00,-0.0951
1807.00,-0.0951
1806.00,-0.0951
1805.00,-0.0951
1804.00,-0.0951
1803.00,-0.0952
1802.00,-0.0952
1801.00,-0.0952
1800.00,-0.0953
1799.00,-0.0953
1798.00,-0.0954
1797.00,-0.0954
1796.00,-0.0954
1795.00,-0.0954
1794.00,-0.0955
1793.00,-0.0955
1792.00,-0.0956
1791.00,-0.0956
1790.00,-0.0957
1789.00,-0.0957
1788.00,-0.0957
1787.00,-0.0958
1786.00,-0.0958
1785.00,-0.0958
1784.00,-0.0958
1783.00,-0.0959
1782.00,-0.0959
1781.00,-0.0959
1780.00,-0.0960
1779.00,-0.0960
1778.00,-0.0960
1777.00,-0.0960
1776.00,-0.0960
1775.00,-0.0960
1774.00,-0.0960
1773.00,-0.0960
1772.00,-0.0960
1771.00,-0.0960
1770.00,-0.0960
1769.00,-0.0959
1768.00,-0.0959
1767.00,-0.0959
1766.00,-0.0959
1765.00,-0.0959
1764.00,-0.0959
1763.00,-0.0958
1762.00,-0.0958
1761.00,-0.0958
1760.00,-0.0958
1759.00,-0.0958
1758.00,-0.0958
1757.00,-0.0957
1756.00,-0.0957
1755.00,-0.0957
1754.00,-0.0957
1753.00,-0.0957
1752.00,-0.0957
1751.00,-0.0957
1750.00,-0.0957
1749.00,-0.0957
1748.00,-0.0957
1747.00,-0.0957
1746.00,-0.0957
1745.00,-0.0957
1744.00,-0.0957
1743.00,-0.0957
1742.00,-0.0957
1741.00,-0.0958
1740.00,-0.0958
1739.00,-0.0958
1738.00,-0.0958
1737.00,-0.0958
1736.00,-0.0958
1735.00,-0.0958
1734.00,-0.0958
1733.00,-0.0959
1732.00,-0.0959
1731.00,-0.0959
1730.00,-0.0959
1729.00,-0.0959
1728.00,-0.0959
1727.00,-0.0960
1726.00,-0.0960
1725.00,-0.0960
1724.00,-0.0960
1723.00,-0.0960
1722.00,-0.0961
1721.00,-0.0961
1720.00,-0.0960
1719.00,-0.0960
1718.00,-0.0960
1717.00,-0.0960
1716.00,-0.0960
1715.00,-0.0960
1714.00,-0.0960
1713.00,-0.0960
1712.00,-0.0960
1711.00,-0.0960
1710.00,-0.0960
1709.00,-0.0960
1708.00,-0.0959
1707.00,-0.0959
1706.00,-0.0959
1705.00,-0.0959
1704.00,-0.0959
1703.00,-0.0958
1702.00,-0.0958
1701.00,-0.0958
1700.00,-0.0958
1699.00,-0.0958
1698.00,-0.0958
1697.00,-0.0957
1696.00,-0.0957
1695.00,-0.0957
1694.00,-0.0958
1693.00,-0.0958
1692.00,-0.0957
1691.00,-0.0957
1690.00,-0.0957
1689.00,-0.0958
1688.00,-0.0958
1687.00,-0.0957
1686.00,-0.0957
1685.00,-0.0957
1684.00,-0.0958
1683.00,-0.0958
1682.00,-0.0958
1681.00,-0.0958
1680.00,-0.0958
1679.00,-0.0958
1678.00,-0.0958
1677.00,-0.0958
1676.00,-0.0958
1675.00,-0.0958
1674.00,-0.0958
1673.00,-0.0958
1672.00,-0.0959
1671.00,-0.0959
1670.00,-0.0959
1669.00,-0.0959
1668.00,-0.0959
1667.00,-0.0959
1666.00,-0.0959
1665.00,-0.0958
1664.00,-0.0958
1663.00,-0.0958
1662.00,-0.0958
1661.00,-0.0958
1660.00,-0.0958
1659.00,-0.0958
1658.00,-0.0957
1657.00,-0.0957
1656.00,-0.0957
1655.00,-0.0956
1654.00,-0.0956
1653.00,-0.0955
1652.00,-0.0955
1651.00,-0.0956
1650.00,-0.0956
1649.00,-0.0955
1648.00,-0.0956
1647.00,-0.0956
1646.00,-0.0955
1645.00,-0.0956
1644.00,-0.0956
1643.00,-0.0956
1642.00,-0.0956
1641.00,-0.0956
1640.00,-0.0956
1639.00,-0.0957
1638.00,-0.0957
1637.00,-0.0957
1636.00,-0.0957
1635.00,-0.0957
1634.00,-0.0957
1633.00,-0.0957
1632.00,-0.0957
1631.00,-0.0957
1630.00,-0.0957
1629.00,-0.0957
1628.00,-0.0957
1627.00,-0.0957
1626.00,-0.0957
1625.00,-0.0958
1624.00,-0.0958
1623.00,-0.0958
1622.00,-0.0958
1621.00,-0.0958
1620.00,-0.0958
1619.00,-0.0958
1618.00,-0.0958
1617.00,-0.0958
1616.00,-0.0958
1615.00,-0.0958
1614.00,-0.0958
1613.00,-0.0958
1612.00,-0.0958
1611.00,-0.0959
1610.00,-0.0959
1609.00,-0.0959
1608.00,-0.0959
1607.00,-0.0959
1606.00,-0.0959
1605.00,-0.0959
1604.00,-0.0959
1603.00,-0.0959
1602.00,-0.0958
1601.00,-0.0958
1600.00,-0.0958
1599.00,-0.0958
1598.00,-0.0958
1597.00,-0.0957
1596.00,-0.0957
1595.00,-0.0957
1594.00,-0.0957
1593.00,-0.0956
1592.00,-0.0956
1591.00,-0.0956
1590.00,-0.0956
1589.00,-0.0956
1588.00,-0.0956
1587.00,-0.0956
1586.00,-0.0956
1585.00,-0.0957
1584.00,-0.0957
1583.00,-0.0957
1582.00,-0.0957
1581.00,-0.0957
1580.00,-0.0957
1579.00,-0.0958
1578.00,-0.0958
1577.00,-0.0958
1576.00,-0.0958
1575.00,-0.0958
1574.00,-0.0959
1573.00,-0.0959
1572.00,-0.0959
1571.00,-0.0959
1570.00,-0.0959
1569.00,-0.0959
1568.00,-0.0959
1567.00,-0.0960
1566.00,-0.0959
1565.00,-0.0960
1564.00,-0.0960
1563.00,-0.0960
1562.00,-0.0959
1561.00,-0.0960
1560.00,-0.0960
1559.00,-0.0959
1558.00,-0.0959
1557.00,-0.0958
1556.00,-0.0958
1555.00,-0.0958
1554.00,-0.0958
1553.00,-0.0958
1552.00,-0.0958
1551.00,-0.0958
1550.00,-0.0958
1549.00,-0.0958
1548.00,-0.0958
1547.00,-0.0958
1546.00,-0.0958
1545.00,-0.0958
1544.00,-0.0958
1543.00,-0.0958
1542.00,-0.0958
1541.00,-0.0958
1540.00,-0.0958
1539.00,-0.0958
1538.00,-0.0957
1537.00,-0.0957
1536.00,-0.0956
1535.00,-0.0956
1534.00,-0.0956
1533.00,-0.0956
1532.00,-0.0956
1531.00,-0.0956
1530.00,-0.0956
1529.00,-0.0956
1528.00,-0.0956
1527.00,-0.0956
1526.00,-0.0956
1525.00,-0.0956
1524.00,-0.0956
1523.00,-0.0956
1522.00,-0.0956
1521.00,-0.0956
1520.00,-0.0956
1519.00,-0.0956
1518.00,-0.0957
1517.00,-0.0957
1516.00,-0.0957
1515.00,-0.0957
1514.00,-0.0957
1513.00,-0.0957
1512.00,-0.0958
1511.00,-0.0958
1510.00,-0.0958
1509.00,-0.0958
1508.00,-0.0959
1507.00,-0.0958
1506.00,-0.0958
1505.00,-0.0959
1504.00,-0.0959
1503.00,-0.0958
1502.00,-0.0958
1501.00,-0.0958
1500.00,-0.0958
1499.00,-0.0958
1498.00,-0.0958
1497.00,-0.0957
1496.00,-0.0957
1495.00,-0.0957
1494.00,-0.0957
1493.00,-0.0957
1492.00,-0.0957
1491.00,-0.0957
1490.00,-0.0957
1489.00,-0.0957
1488.00,-0.0957
1487.00,-0.0957
1486.00,-0.0957
1485.00,-0.0957
1484.00,-0.0957
1483.00,-0.0957
1482.00,-0.0957
1481.00,-0.0958
1480.00,-0.0957
1479.00,-0.0958
1478.00,-0.0958
1477.00,-0.0958
1476.00,-0.0958
1475.00,-0.0958
1474.00,-0.0959
1473.00,-0.0959
1472.00,-0.0959
1471.00,-0.0959
1470.00,-0.0959
1469.00,-0.0960
1468.00,-0.0960
1467.00,-0.0960
1466.00,-0.0961
1465.00,-0.0961
1464.00,-0.0961
1463.00,-0.0961
1462.00,-0.0961
1461.00,-0.0961
1460.00,-0.0961
1459.00,-0.0961
1458.00,-0.0961
1457.00,-0.0960
1456.00,-0.0960
1455.00,-0.0960
1454.00,-0.0960
1453.00,-0.0960
1452.00,-0.0960
1451.00,-0.0960
1450.00,-0.0960
1449.00,-0.0960
1448.00,-0.0960
1447.00,-0.0960
1446.00,-0.0959
1445.00,-0.0959
1444.00,-0.0959
1443.00,-0.0959
1442.00,-0.0959
1441.00,-0.0958
1440.00,-0.0958
1439.00,-0.0958
1438.00,-0.0957
1437.00,-0.0957
1436.00,-0.0957
1435.00,-0.0956
1434.00,-0.0956
1433.00,-0.0957
1432.00,-0.0957
1431.00,-0.0956
1430.00,-0.0956
1429.00,-0.0956
1428.00,-0.0957
1427.00,-0.0957
1426.00,-0.0957
1425.00,-0.0957
1424.00,-0.0957
1423.00,-0.0957
1422.00,-0.0957
1421.00,-0.0957
1420.00,-0.0957
1419.00,-0.0957
1418.00,-0.0958
1417.00,-0.0958
1416.00,-0.0958
1415.00,-0.0959
1414.00,-0.0959
1413.00,-0.0959
1412.00,-0.0959
1411.00,-0.0959
1410.00,-0.0959
1409.00,-0.0959
1408.00,-0.0960
1407.00,-0.0960
1406.00,-0.0960
1405.00,-0.0960
1404.00,-0.0960
1403.00,-0.0960
1402.00,-0.0960
1401.00,-0.0960
1400.00,-0.0960
1399.00,-0.0960
1398.00,-0.0959
1397.00,-0.0959
1396.00,-0.0959
1395.00,-0.0959
1394.00,-0.0959
1393.00,-0.0959
1392.00,-0.0959
1391.00,-0.0959
1390.00,-0.0959
1389.00,-0.0959
1388.00,-0.0959
1387.00,-0.0959
1386.00,-0.0959
1385.00,-0.0959
1384.00,-0.0958
1383.00,-0.0958
1382.00,-0.0958
1381.00,-0.0958
1380.00,-0.0958
1379.00,-0.0958
1378.00,-0.0958
1377.00,-0.0958
1376.00,-0.0958
1375.00,-0.0958
1374.00,-0.0958
1373.00,-0.0958
1372.00,-0.0958
1371.00,-0.0958
1370.00,-0.0958
1369.00,-0.0958
1368.00,-0.0958
1367.00,-0.0958
1366.00,-0.0958
1365.00,-0.0958
1364.00,-0.0958
1363.00,-0.0958
1362.00,-0.0958
1361.00,-0.0959
1360.00,-0.0959
1359.00,-0.0959
1358.00,-0.0959
1357.00,-0.0959
1356.00,-0.0959
1355.00,-0.0959
1354.00,-0.0960
1353.00,-0.0960
1352.00,-0.0960
1351.00,-0.0960
1350.00,-0.0960
1349.00,-0.0960
1348.00,-0.0960
1347.00,-0.0960
1346.00,-0.0960
1345.00,-0.0960
1344.00,-0.0960
1343.00,-0.0960
1342.00,-0.0960
1341.00,-0.0959
1340.00,-0.0959
1339.00,-0.0959
1338.00,-0.0959
1337.00,-0.0959
1336.00,-0.0959
1335.00,-0.0959
1334.00,-0.0959
1333.00,-0.0958
1332.00,-0.0958
1331.00,-0.0958
1330.00,-0.0958
1329.00,-0.0958
1328.00,-0.0958
1327.00,-0.0958
1326.00,-0.0958
1325.00,-0.0958
1324.00,-0.0958
1323.00,-0.0958
1322.00,-0.0958
1321.00,-0.0958
1320.00,-0.0958
1319.00,-0.0958
1318.00,-0.0958
1317.00,-0.0958
1316.00,-0.0958
1315.00,-0.0959
1314.00,-0.0959
1313.00,-0.0959
1312.00,-0.0959
1311.00,-0.0959
1310.00,-0.0959
1309.00,-0.0959
1308.00,-0.0960
1307.00,-0.0960
1306.00,-0.0960
1305.00,-0.0960
1304.00,-0.0960
1303.00,-0.0960
1302.00,-0.0960
1301.00,-0.0960
1300.00,-0.0960
1299.00,-0.0960
1298.00,-0.0960
1297.00,-0.0960
1296.00,-0.0960
1295.00,-0.0960
1294.00,-0.0960
1293.00,-0.0960
1292.00,-0.0960
1291.00,-0.0959
1290.00,-0.0959
1289.00,-0.0959
1288.00,-0.0959
1287.00,-0.0958
1286.00,-0.0958
1285.00,-0.0958
1284.00,-0.0958
1283.00,-0.0958
1282.00,-0.0957
1281.00,-0.0957
1280.00,-0.0957
1279.00,-0.0957
1278.00,-0.0957
1277.00,-0.0956
1276.00,-0.0956
1275.00,-0.0956
1274.00,-0.0956
1273.00,-0.0956
1272.00,-0.0956
1271.00,-0.0956
1270.00,-0.0956
1269.00,-0.0956
1268.00,-0.0956
1267.00,-0.0956
1266.00,-0.0956
1265.00,-0.0956
1264.00,-0.0956
1263.00,-0.0956
1262.00,-0.0956
1261.00,-0.0957
1260.00,-0.0957
1259.00,-0.0957
1258.00,-0.0957
1257.00,-0.0957
1256.00,-0.0958
1255.00,-0.0958
1254.00,-0.0958
1253.00,-0.0958
1252.00,-0.0958
1251.00,-0.0958
1250.00,-0.0958
1249.00,-0.0959
1248.00,-0.0959
1247.00,-0.0959
1246.00,-0.0959
1245.00,-0.0959
1244.00,-0.0959
1243.00,-0.0959
1242.00,-0.0959
1241.00,-0.0959
1240.00,-0.0959
1239.00,-0.0958
1238.00,-0.0958
1237.00,-0.0958
1236.00,-0.0958
1235.00,-0.0958
1234.00,-0.0958
1233.00,-0.0957
1232.00,-0.0957
1231.00,-0.0957
1230.00,-0.0957
1229.00,-0.0956
1228.00,-0.0956
1227.00,-0.0956
1226.00,-0.0956
1225.00,-0.0956
1224.00,-0.0955
1223.00,-0.0955
1222.00,-0.0955
1221.00,-0.0955
1220.00,-0.0955
1219.00,-0.0954
1218.00,-0.0954
1217.00,-0.0954
1216.00,-0.0954
1215.00,-0.0954
1214.00,-0.0954
1213.00,-0.0954
1212.00,-0.0954
1211.00,-0.0954
1210.00,-0.0954
1209.00,-0.0954
1208.00,-0.0954
1207.00,-0.0954
1206.00,-0.0954
1205.00,-0.0954
1204.00,-0.0955
1203.00,-0.0955
1202.00,-0.0955
1201.00,-0.0955
1200.00,-0.0955
1199.00,-0.0955
1198.00,-0.0955
1197.00,-0.0955
1196.00,-0.0955
1195.00,-0.0955
1194.00,-0.0956
1193.00,-0.0956
1192.00,-0.0956
1191.00,-0.0956
1190.00,-0.0955
1189.00,-0.0955
1188.00,-0.0955
1187.00,-0.0955
1186.00,-0.0955
1185.00,-0.0955
1184.00,-0.0955
1183.00,-0.0955
1182.00,-0.0955
1181.00,-0.0955
1180.00,-0.0954
1179.00,-0.0954
1178.00,-0.0954
1177.00,-0.0954
1176.00,-0.0954
1175.00,-0.0954
1174.00,-0.0953
1173.00,-0.0953
1172.00,-0.0953
1171.00,-0.0953
1170.00,-0.0952
1169.00,-0.0952
1168.00,-0.0952
1167.00,-0.0952
1166.00,-0.0952
1165.00,-0.0952
1164.00,-0.0952
1163.00,-0.0952
1162.00,-0.0952
1161.00,-0.0952
1160.00,-0.0952
1159.00,-0.0952
1158.00,-0.0952
1157.00,-0.0952
1156.00,-0.0952
1155.00,-0.0952
1154.00,-0.0952
1153.00,-0.0952
1152.00,-0.0952
1151.00,-0.0952
1150.00,-0.0952
1149.00,-0.0952
1148.00,-0.0952
1147.00,-0.0952
1146.00,-0.0952
1145.00,-0.0953
1144.00,-0.0953
1143.00,-0.0953
1142.00,-0.0953
1141.00,-0.0953
1140.00,-0.0953
1139.00,-0.0953
1138.00,-0.0953
1137.00,-0.0953
1136.00,-0.0953
1135.00,-0.0953
1134.00,-0.0953
1133.00,-0.0953
1132.00,-0.0953
1131.00,-0.0953
1130.00,-0.0953
1129.00,-0.0953
1128.00,-0.0952
1127.00,-0.0952
1126.00,-0.0952
1125.00,-0.0952
1124.00,-0.0952
1123.00,-0.0952
1122.00,-0.0952
1121.00,-0.0952
1120.00,-0.0952
1119.00,-0.0952
1118.00,-0.0951
1117.00,-0.0951
1116.00,-0.0951
1115.00,-0.0951
1114.00,-0.0951
1113.00,-0.0951
1112.00,-0.0951
1111.00,-0.0951
1110.00,-0.0951
1109.00,-0.0951
1108.00,-0.0951
1107.00,-0.0951
1106.00,-0.0951
1105.00,-0.0951
1104.00,-0.0951
1103.00,-0.0951
1102.00,-0.0951
1101.00,-0.0951
1100.00,-0.0951
1099.00,-0.0951
1098.00,-0.0951
1097.00,-0.0951
1096.00,-0.0951
1095.00,-0.0951
1094.00,-0.0952
1093.00,-0.0952
1092.00,-0.0952
1091.00,-0.0952
1090.00,-0.0952
1089.00,-0.0952
1088.00,-0.0952
1087.00,-0.0952
1086.00,-0.0952
1085.00,-0.0952
1084.00,-0.0952
1083.00,-0.0952
1082.00,-0.0952
1081.00,-0.0952
1080.00,-0.0951
1079.00,-0.0951
1078.00,-0.0951
1077.00,-0.0951
1076.00,-0.0950
1075.00,-0.0950
1074.00,-0.0950
1073.00,-0.0950
1072.00,-0.0950
1071.00,-0.0950
1070.00,-0.0949
1069.00,-0.0949
1068.00,-0.0949
1067.00,-0.0949
1066.00,-0.0948
1065.00,-0.0948
1064.00,-0.0948
1063.00,-0.0948
1062.00,-0.0948
1061.00,-0.0948
1060.00,-0.0948
1059.00,-0.0948
1058.00,-0.0948
1057.00,-0.0948
1056.00,-0.0948
1055.00,-0.0948
1054.00,-0.0948
1053.00,-0.0948
1052.00,-0.0948
1051.00,-0.0948
1050.00,-0.0948
1049.00,-0.0949
1048.00,-0.0949
1047.00,-0.0949
1046.00,-0.0950
1045.00,-0.0950
1044.00,-0.0950
1043.00,-0.0950
1042.00,-0.0951
1041.00,-0.0951
1040.00,-0.0951
1039.00,-0.0952
1038.00,-0.0952
1037.00,-0.0952
1036.00,-0.0953
1035.00,-0.0953
1034.00,-0.0953
1033.00,-0.0953
1032.00,-0.0953
1031.00,-0.0953
1030.00,-0.0953
1029.00,-0.0954
1028.00,-0.0954
1027.00,-0.0954
1026.00,-0.0954
1025.00,-0.0954
1024.00,-0.0954
1023.00,-0.0955
1022.00,-0.0955
1021.00,-0.0955
1020.00,-0.0955
1019.00,-0.0955
1018.00,-0.0955
1017.00,-0.0955
1016.00,-0.0955
1015.00,-0.0956
1014.00,-0.0956
1013.00,-0.0956
1012.00,-0.0956
1011.00,-0.0956
1010.00,-0.0956
1009.00,-0.0956
1008.00,-0.0956
1007.00,-0.0956
1006.00,-0.0956
1005.00,-0.0956
1004.00,-0.0956
1003.00,-0.0957
1002.00,-0.0957
1001.00,-0.0957
1000.00,-0.0957
999.00,-0.0957
998.00,-0.0958
997.00,-0.0958
996.00,-0.0958
995.00,-0.0958
994.00,-0.0959
993.00,-0.0959
992.00,-0.0959
991.00,-0.0960
990.00,-0.0960
989.00,-0.0960
988.00,-0.0961
987.00,-0.0961
986.00,-0.0961
985.00,-0.0962
984.00,-0.0962
983.00,-0.0962
982.00,-0.0962
981.00,-0.0962
980.00,-0.0962
979.00,-0.0963
978.00,-0.0963
977.00,-0.0963
976.00,-0.0963
975.00,-0.0963
974.00,-0.0963
973.00,-0.0963
972.00,-0.0963
971.00,-0.0963
970.00,-0.0963
969.00,-0.0963
968.00,-0.0963
967.00,-0.0963
966.00,-0.0964
965.00,-0.0964
964.00,-0.0964
963.00,-0.0964
962.00,-0.0963
961.00,-0.0963
960.00,-0.0964
959.00,-0.0963
958.00,-0.0963
957.00,-0.0963
956.00,-0.0964
955.00,-0.0964
954.00,-0.0964
953.00,-0.0964
952.00,-0.0964
951.00,-0.0964
950.00,-0.0964
949.00,-0.0964
948.00,-0.0965
947.00,-0.0965
946.00,-0.0965
945.00,-0.0965
944.00,-0.0965
943.00,-0.0965
942.00,-0.0966
941.00,-0.0966
940.00,-0.0966
939.00,-0.0966
938.00,-0.0967
937.00,-0.0967
936.00,-0.0967
935.00,-0.0967
934.00,-0.0967
933.00,-0.0968
932.00,-0.0968
931.00,-0.0968
930.00,-0.0968
929.00,-0.0968
928.00,-0.0968
927.00,-0.0968
926.00,-0.0968
925.00,-0.0968
924.00,-0.0968
923.00,-0.0968
922.00,-0.0968
921.00,-0.0968
920.00,-0.0968
919.00,-0.0968
918.00,-0.0968
917.00,-0.0968
916.00,-0.0968
915.00,-0.0968
914.00,-0.0968
913.00,-0.0968
912.00,-0.0968
911.00,-0.0967
910.00,-0.0967
909.00,-0.0967
908.00,-0.0967
907.00,-0.0967
906.00,-0.0967
905.00,-0.0967
904.00,-0.0967
903.00,-0.0967
902.00,-0.0967
901.00,-0.0967
900.00,-0.0967
899.00,-0.0967
898.00,-0.0967
897.00,-0.0967
896.00,-0.0968
895.00,-0.0968
894.00,-0.0968
893.00,-0.0968
892.00,-0.0968
891.00,-0.0968
890.00,-0.0968
889.00,-0.0968
888.00,-0.0969
887.00,-0.0969
886.00,-0.0969
885.00,-0.0969
884.00,-0.0969
883.00,-0.0969
882.00,-0.0969
881.00,-0.0969
880.00,-0.0969
879.00,-0.0969
878.00,-0.0969
877.00,-0.0970
876.00,-0.0970
875.00,-0.0969
874.00,-0.0969
873.00,-0.0969
872.00,-0.0969
871.00,-0.0969
870.00,-0.0969
869.00,-0.0969
868.00,-0.0969
867.00,-0.0970
866.00,-0.0970
865.00,-0.0969
864.00,-0.0969
863.00,-0.0969
862.00,-0.0969
861.00,-0.0969
860.00,-0.0969
859.00,-0.0969
858.00,-0.0969
857.00,-0.0968
856.00,-0.0968
855.00,-0.0968
854.00,-0.0968
853.00,-0.0968
852.00,-0.0968
851.00,-0.0968
850.00,-0.0968
849.00,-0.0968
848.00,-0.0968
847.00,-0.0968
846.00,-0.0968
845.00,-0.0968
844.00,-0.0969
843.00,-0.0969
842.00,-0.0968
841.00,-0.0968
840.00,-0.0968
839.00,-0.0968
838.00,-0.0968
837.00,-0.0968
836.00,-0.0968
835.00,-0.0968
834.00,-0.0969
833.00,-0.0969
832.00,-0.0969
831.00,-0.0969
830.00,-0.0969
829.00,-0.0969
828.00,-0.0969
827.00,-0.0969
826.00,-0.0969
825.00,-0.0969
824.00,-0.0969
823.00,-0.0969
822.00,-0.0969
821.00,-0.0969
820.00,-0.0969
819.00,-0.0969
818.00,-0.0969
817.00,-0.0969
816.00,-0.0969
815.00,-0.0969
814.00,-0.0969
813.00,-0.0969
812.00,-0.0969
811.00,-0.0969
810.00,-0.0969
809.00,-0.0969
808.00,-0.0968
807.00,-0.0969
806.00,-0.0969
805.00,-0.0969
804.00,-0.0969
803.00,-0.0969
802.00,-0.0969
801.00,-0.0969
800.00,-0.0969
799.00,-0.0969
798.00,-0.0969
797.00,-0.0969
796.00,-0.0969
795.00,-0.0968
794.00,-0.0968
793.00,-0.0968
792.00,-0.0969
791.00,-0.0969
790.00,-0.0969
789.00,-0.0969
788.00,-0.0969
787.00,-0.0969
786.00,-0.0969
785.00,-0.0969
784.00,-0.0969
783.00,-0.0969
782.00,-0.0969
781.00,-0.0969
780.00,-0.0969
779.00,-0.0969
778.00,-0.0970
777.00,-0.0969
776.00,-0.0969
775.00,-0.0969
774.00,-0.0969
773.00,-0.0969
772.00,-0.0969
771.00,-0.0970
770.00,-0.0970
769.00,-0.0970
768.00,-0.0969
767.00,-0.0969
766.00,-0.0969
765.00,-0.0969
764.00,-0.0969
763.00,-0.0969
762.00,-0.0969
761.00,-0.0969
760.00,-0.0968
759.00,-0.0968
758.00,-0.0968
757.00,-0.0968
756.00,-0.0968
755.00,-0.0968
754.00,-0.0967
753.00,-0.0967
752.00,-0.0967
751.00,-0.0967
750.00,-0.0967
749.00,-0.0967
748.00,-0.0966
747.00,-0.0966
746.00,-0.0967
745.00,-0.0967
744.00,-0.0967
743.00,-0.0967
742.00,-0.0967
741.00,-0.0966
740.00,-0.0966
739.00,-0.0966
738.00,-0.0966
737.00,-0.0966
736.00,-0.0966
735.00,-0.0966
734.00,-0.0967
733.00,-0.0967
732.00,-0.0967
731.00,-0.0967
730.00,-0.0967
729.00,-0.0967
728.00,-0.0967
727.00,-0.0967
726.00,-0.0967
725.00,-0.0967
724.00,-0.0967
723.00,-0.0967
722.00,-0.0968
721.00,-0.0968
720.00,-0.0968
719.00,-0.0968
718.00,-0.0968
717.00,-0.0968
716.00,-0.0968
715.00,-0.0968
714.00,-0.0968
713.00,-0.0968
712.00,-0.0968
711.00,-0.0967
710.00,-0.0967
709.00,-0.0967
708.00,-0.0967
707.00,-0.0967
706.00,-0.0967
705.00,-0.0967
704.00,-0.0966
703.00,-0.0966
702.00,-0.0966
701.00,-0.0966
700.00,-0.0966
699.00,-0.0965
698.00,-0.0965
697.00,-0.0965
696.00,-0.0965
695.00,-0.0965
694.00,-0.0965
693.00,-0.0964
692.00,-0.0964
691.00,-0.0964
690.00,-0.0963
689.00,-0.0963
688.00,-0.0963
687.00,-0.0963
686.00,-0.0963
685.00,-0.0963
684.00,-0.0962
683.00,-0.0962
682.00,-0.0963
681.00,-0.0963
680.00,-0.0963
679.00,-0.0963
678.00,-0.0963
677.00,-0.0963
676.00,-0.0963
675.00,-0.0963
674.00,-0.0963
673.00,-0.0963
672.00,-0.0962
671.00,-0.0961
670.00,-0.0958
669.00,-0.0952
668.00,-0.0948
667.00,-0.0948
666.00,-0.0952
665.00,-0.0956
664.00,-0.0960
663.00,-0.0962
662.00,-0.0962
661.00,-0.0962
660.00,-0.0962
659.00,-0.0962
658.00,-0.0962
657.00,-0.0962
656.00,-0.0962
655.00,-0.0961
654.00,-0.0960
653.00,-0.0960
652.00,-0.0960
651.00,-0.0960
650.00,-0.0960
649.00,-0.0960
648.00,-0.0960
647.00,-0.0960
646.00,-0.0960
645.00,-0.0960
644.00,-0.0960
643.00,-0.0960
642.00,-0.0960
641.00,-0.0959
640.00,-0.0959
639.00,-0.0959
638.00,-0.0958
637.00,-0.0958
636.00,-0.0958
635.00,-0.0958
634.00,-0.0958
633.00,-0.0958
632.00,-0.0958
631.00,-0.0958
630.00,-0.0958
629.00,-0.0958
628.00,-0.0958
627.00,-0.0958
626.00,-0.0958
625.00,-0.0958
624.00,-0.0958
623.00,-0.0959
622.00,-0.0959
621.00,-0.0959
620.00,-0.0958
619.00,-0.0958
618.00,-0.0958
617.00,-0.0958
616.00,-0.0959
615.00,-0.0959
614.00,-0.0959
613.00,-0.0959
612.00,-0.0959
611.00,-0.0959
610.00,-0.0959
609.00,-0.0959
608.00,-0.0959
607.00,-0.0959
606.00,-0.0958
605.00,-0.0958
604.00,-0.0958
603.00,-0.0958
602.00,-0.0958
601.00,-0.0958
600.00,-0.0958
599.00,-0.0958
598.00,-0.0958
597.00,-0.0958
596.00,-0.0958
595.00,-0.0958
594.00,-0.0957
593.00,-0.0957
592.00,-0.0957
591.00,-0.0957
590.00,-0.0957
589.00,-0.0957
588.00,-0.0957
587.00,-0.0957
586.00,-0.0956
585.00,-0.0955
584.00,-0.0955
583.00,-0.0956
582.00,-0.0956
581.00,-0.0956
580.00,-0.0956
579.00,-0.0956
578.00,-0.0956
577.00,-0.0955
576.00,-0.0956
575.00,-0.0956
574.00,-0.0956
573.00,-0.0956
572.00,-0.0956
571.00,-0.0956
570.00,-0.0955
569.00,-0.0955
568.00,-0.0955
567.00,-0.0955
566.00,-0.0955
565.00,-0.0956
564.00,-0.0956
563.00,-0.0956
562.00,-0.0956
561.00,-0.0955
560.00,-0.0955
559.00,-0.0954
558.00,-0.0954
557.00,-0.0955
556.00,-0.0955
555.00,-0.0956
554.00,-0.0957
553.00,-0.0957
552.00,-0.0956
551.00,-0.0956
550.00,-0.0956
549.00,-0.0957
548.00,-0.0957
547.00,-0.0957
546.00,-0.0957
545.00,-0.0957
544.00,-0.0957
543.00,-0.0958
542.00,-0.0958
541.00,-0.0958
540.00,-0.0958
539.00,-0.0958
538.00,-0.0958
537.00,-0.0959
536.00,-0.0959
535.00,-0.0960
534.00,-0.0960
533.00,-0.0960
532.00,-0.0961
531.00,-0.0962
530.00,-0.0962
529.00,-0.0962
528.00,-0.0962
527.00,-0.0962
526.00,-0.0963
525.00,-0.0963
524.00,-0.0965
523.00,-0.0966
522.00,-0.0966
521.00,-0.0967
520.00,-0.0967
519.00,-0.0966
518.00,-0.0966
517.00,-0.0966
516.00,-0.0966
515.00,-0.0966
514.00,-0.0966
513.00,-0.0966
512.00,-0.0966
511.00,-0.0968
510.00,-0.0969
509.00,-0.0969
508.00,-0.0969
507.00,-0.0969
506.00,-0.0968
505.00,-0.0969
504.00,-0.0969
503.00,-0.0970
502.00,-0.0970
501.00,-0.0969
500.00,-0.0969
